"Time (MJD)" cyan-5182.42 cyan-5182.42_err g-4746.48 g-4746.48_err g-4793.46 g-4793.46_err i-7589.41 i-7589.41_err i-7829.03 i-7829.03_err orange-6629.82 orange-6629.82_err r-6120.65 r-6120.65_err r-6366.38 r-6366.38_err z-8970.57 z-8970.57_err "Temp./1e3 (K)" "Temp. Err." "Radius/1e15 (cm)" "Radius Err." "Log10(Bol. Lum)" "Log10(Bol. Err)"
-20.000 -21.951 -0.084 -21.949 -0.082 -21.929 -0.073 -21.841 -0.067 -21.808 -0.067 -21.767 -0.068 -21.585 -0.081 -21.536 -0.087 -21.293 -0.142 30.137 7.923 1.474 0.337 45.106 44.882
-19.600 -21.957 -0.081 -21.956 -0.079 -21.936 -0.070 -21.849 -0.065 -21.816 -0.065 -21.775 -0.066 -21.594 -0.080 -21.545 -0.085 -21.301 -0.140 18.615 0.682 2.392 0.099 44.690 43.503
-19.200 -21.964 -0.079 -21.962 -0.077 -21.943 -0.068 -21.857 -0.063 -21.824 -0.063 -21.784 -0.065 -21.603 -0.078 -21.554 -0.084 -21.310 -0.139 18.545 0.675 2.411 0.100 44.690 43.498
-18.800 -21.970 -0.076 -21.969 -0.075 -21.950 -0.066 -21.864 -0.062 -21.832 -0.062 -21.792 -0.063 -21.612 -0.077 -21.563 -0.082 -21.318 -0.138 18.474 0.667 2.430 0.100 44.690 43.493
-18.400 -21.977 -0.074 -21.975 -0.073 -21.957 -0.065 -21.872 -0.061 -21.840 -0.061 -21.800 -0.062 -21.621 -0.075 -21.572 -0.081 -21.327 -0.137 18.402 0.658 2.449 0.100 44.690 43.487
-18.000 -21.983 -0.072 -21.982 -0.070 -21.964 -0.063 -21.880 -0.059 -21.848 -0.059 -21.808 -0.061 -21.630 -0.074 -21.581 -0.080 -21.335 -0.135 18.329 0.648 2.469 0.100 44.691 43.480
-17.600 -21.989 -0.070 -21.988 -0.068 -21.970 -0.061 -21.887 -0.058 -21.856 -0.058 -21.816 -0.060 -21.639 -0.073 -21.590 -0.079 -21.344 -0.134 18.255 0.638 2.489 0.100 44.691 43.473
-17.200 -21.995 -0.068 -21.994 -0.067 -21.977 -0.060 -21.895 -0.057 -21.864 -0.057 -21.824 -0.059 -21.648 -0.072 -21.599 -0.078 -21.352 -0.134 18.179 0.628 2.510 0.100 44.690 43.465
-16.800 -22.002 -0.066 -22.000 -0.065 -21.983 -0.058 -21.902 -0.056 -21.871 -0.056 -21.832 -0.058 -21.657 -0.071 -21.608 -0.076 -21.361 -0.133 18.104 0.617 2.531 0.100 44.690 43.457
-16.400 -22.008 -0.064 -22.006 -0.063 -21.990 -0.057 -21.909 -0.055 -21.879 -0.055 -21.840 -0.057 -21.666 -0.070 -21.617 -0.076 -21.369 -0.132 18.027 0.605 2.552 0.100 44.690 43.448
-16.000 -22.013 -0.063 -22.012 -0.061 -21.996 -0.056 -21.917 -0.054 -21.886 -0.054 -21.848 -0.056 -21.675 -0.069 -21.626 -0.075 -21.378 -0.131 17.950 0.593 2.573 0.100 44.690 43.438
-15.600 -22.019 -0.061 -22.018 -0.059 -22.002 -0.054 -21.924 -0.054 -21.894 -0.054 -21.856 -0.055 -21.684 -0.068 -21.635 -0.074 -21.387 -0.131 17.872 0.581 2.595 0.099 44.690 43.428
-15.200 -22.025 -0.059 -22.024 -0.058 -22.009 -0.053 -21.931 -0.053 -21.901 -0.053 -21.864 -0.055 -21.693 -0.067 -21.644 -0.073 -21.395 -0.130 17.794 0.569 2.616 0.099 44.689 43.418
-14.800 -22.030 -0.058 -22.029 -0.056 -22.015 -0.052 -21.938 -0.052 -21.908 -0.052 -21.871 -0.054 -21.701 -0.067 -21.653 -0.072 -21.404 -0.130 17.715 0.556 2.639 0.099 44.689 43.407
-14.400 -22.036 -0.056 -22.035 -0.055 -22.021 -0.051 -21.944 -0.051 -21.915 -0.052 -21.879 -0.053 -21.710 -0.066 -21.662 -0.072 -21.412 -0.129 17.636 0.543 2.661 0.098 44.688 43.395
-14.000 -22.041 -0.054 -22.040 -0.053 -22.026 -0.050 -21.951 -0.051 -21.922 -0.051 -21.886 -0.053 -21.719 -0.065 -21.670 -0.071 -21.421 -0.129 17.556 0.530 2.684 0.097 44.688 43.383
-13.600 -22.046 -0.053 -22.046 -0.052 -22.032 -0.049 -21.958 -0.050 -21.929 -0.050 -21.894 -0.052 -21.728 -0.065 -21.679 -0.070 -21.429 -0.128 17.476 0.516 2.706 0.097 44.687 43.370
-13.200 -22.051 -0.052 -22.051 -0.050 -22.038 -0.048 -21.964 -0.050 -21.936 -0.050 -21.901 -0.052 -21.736 -0.064 -21.688 -0.070 -21.437 -0.128 17.396 0.503 2.730 0.096 44.687 43.357
-12.800 -22.056 -0.050 -22.056 -0.049 -22.043 -0.047 -21.970 -0.049 -21.942 -0.049 -21.908 -0.051 -21.745 -0.063 -21.697 -0.069 -21.446 -0.128 17.315 0.490 2.753 0.095 44.686 43.343
-12.400 -22.061 -0.049 -22.061 -0.048 -22.048 -0.046 -21.976 -0.049 -21.949 -0.049 -21.915 -0.051 -21.753 -0.063 -21.706 -0.069 -21.454 -0.128 17.235 0.477 2.776 0.094 44.685 43.330
-12.000 -22.066 -0.047 -22.065 -0.046 -22.053 -0.045 -21.983 -0.048 -21.955 -0.048 -21.922 -0.050 -21.762 -0.062 -21.714 -0.068 -21.462 -0.128 17.154 0.464 2.800 0.093 44.685 43.316
-11.600 -22.070 -0.046 -22.070 -0.045 -22.058 -0.045 -21.989 -0.048 -21.962 -0.048 -21.929 -0.050 -21.770 -0.062 -21.723 -0.068 -21.471 -0.128 17.073 0.451 2.824 0.093 44.684 43.302
-11.200 -22.075 -0.045 -22.074 -0.044 -22.063 -0.044 -21.994 -0.047 -21.968 -0.048 -21.936 -0.049 -21.779 -0.061 -21.731 -0.067 -21.479 -0.127 16.991 0.439 2.849 0.092 44.683 43.287
-10.800 -22.079 -0.044 -22.078 -0.043 -22.068 -0.043 -22.000 -0.047 -21.974 -0.047 -21.942 -0.049 -21.787 -0.061 -21.740 -0.067 -21.487 -0.127 16.910 0.427 2.873 0.091 44.682 43.273
-10.400 -22.083 -0.043 -22.082 -0.042 -22.073 -0.043 -22.006 -0.046 -21.980 -0.047 -21.949 -0.049 -21.795 -0.060 -21.748 -0.066 -21.495 -0.127 16.829 0.416 2.898 0.090 44.681 43.259
-10.000 -22.087 -0.042 -22.086 -0.041 -22.077 -0.042 -22.012 -0.046 -21.986 -0.046 -21.955 -0.048 -21.803 -0.060 -21.756 -0.066 -21.503 -0.127 16.747 0.405 2.923 0.090 44.680 43.246
-9.600 -22.090 -0.041 -22.090 -0.040 -22.082 -0.041 -22.017 -0.046 -21.992 -0.046 -21.962 -0.048 -21.811 -0.059 -21.765 -0.066 -21.511 -0.127 16.666 0.395 2.948 0.089 44.679 43.233
-9.200 -22.094 -0.040 -22.094 -0.039 -22.086 -0.041 -22.023 -0.045 -21.998 -0.046 -21.968 -0.048 -21.819 -0.059 -21.773 -0.065 -21.519 -0.127 16.584 0.386 2.973 0.089 44.678 43.220
-8.800 -22.097 -0.040 -22.097 -0.039 -22.090 -0.041 -22.028 -0.045 -22.004 -0.046 -21.974 -0.048 -21.827 -0.058 -21.781 -0.065 -21.526 -0.128 16.503 0.378 2.999 0.088 44.677 43.208
-8.400 -22.100 -0.039 -22.100 -0.038 -22.094 -0.040 -22.033 -0.045 -22.009 -0.045 -21.981 -0.048 -21.835 -0.058 -21.789 -0.065 -21.534 -0.128 16.422 0.370 3.024 0.088 44.676 43.197
-8.000 -22.103 -0.039 -22.103 -0.038 -22.097 -0.040 -22.038 -0.045 -22.015 -0.045 -21.987 -0.047 -21.843 -0.058 -21.796 -0.064 -21.542 -0.128 16.342 0.363 3.050 0.088 44.675 43.186
-7.600 -22.106 -0.038 -22.106 -0.037 -22.101 -0.040 -22.043 -0.044 -22.021 -0.045 -21.993 -0.047 -21.850 -0.057 -21.804 -0.064 -21.549 -0.128 16.262 0.357 3.076 0.088 44.674 43.177
-7.200 -22.109 -0.038 -22.109 -0.037 -22.105 -0.040 -22.048 -0.044 -22.026 -0.045 -21.999 -0.047 -21.858 -0.057 -21.812 -0.064 -21.557 -0.128 16.183 0.351 3.102 0.088 44.672 43.168
-6.800 -22.111 -0.038 -22.112 -0.037 -22.108 -0.040 -22.053 -0.044 -22.031 -0.045 -22.005 -0.047 -21.865 -0.057 -21.819 -0.064 -21.564 -0.128 16.105 0.346 3.128 0.088 44.671 43.161
-6.400 -22.113 -0.038 -22.114 -0.037 -22.111 -0.040 -22.058 -0.044 -22.037 -0.045 -22.010 -0.047 -21.872 -0.057 -21.827 -0.064 -21.571 -0.128 16.028 0.342 3.154 0.089 44.670 43.154
-6.000 -22.116 -0.038 -22.116 -0.037 -22.114 -0.040 -22.063 -0.044 -22.042 -0.045 -22.016 -0.047 -21.879 -0.057 -21.834 -0.063 -21.578 -0.128 15.952 0.339 3.179 0.089 44.669 43.149
-5.600 -22.118 -0.038 -22.119 -0.038 -22.118 -0.040 -22.068 -0.044 -22.047 -0.045 -22.022 -0.047 -21.886 -0.056 -21.841 -0.063 -21.585 -0.128 15.878 0.337 3.205 0.090 44.668 43.144
-5.200 -22.120 -0.039 -22.121 -0.038 -22.120 -0.041 -22.072 -0.045 -22.052 -0.045 -22.027 -0.048 -21.893 -0.056 -21.848 -0.063 -21.592 -0.128 15.806 0.335 3.230 0.091 44.667 43.141
-4.800 -22.122 -0.039 -22.123 -0.038 -22.123 -0.041 -22.077 -0.045 -22.057 -0.046 -22.032 -0.048 -21.900 -0.056 -21.855 -0.063 -21.599 -0.129 15.735 0.333 3.255 0.092 44.665 43.138
-4.400 -22.123 -0.040 -22.124 -0.039 -22.126 -0.041 -22.081 -0.045 -22.062 -0.046 -22.038 -0.048 -21.906 -0.056 -21.861 -0.063 -21.605 -0.129 15.665 0.333 3.280 0.093 44.664 43.137
-4.000 -22.125 -0.040 -22.126 -0.040 -22.128 -0.042 -22.086 -0.046 -22.067 -0.046 -22.043 -0.048 -21.912 -0.057 -21.868 -0.064 -21.612 -0.129 15.597 0.332 3.305 0.094 44.663 43.136
-3.600 -22.126 -0.041 -22.128 -0.040 -22.131 -0.042 -22.090 -0.046 -22.071 -0.047 -22.048 -0.048 -21.919 -0.057 -21.874 -0.064 -21.618 -0.129 15.529 0.333 3.329 0.096 44.662 43.135
-3.200 -22.128 -0.042 -22.129 -0.041 -22.133 -0.043 -22.094 -0.046 -22.076 -0.047 -22.052 -0.049 -21.925 -0.057 -21.880 -0.064 -21.624 -0.129 15.463 0.333 3.353 0.097 44.661 43.135
-2.800 -22.129 -0.043 -22.130 -0.042 -22.135 -0.043 -22.098 -0.047 -22.080 -0.047 -22.057 -0.049 -21.930 -0.057 -21.886 -0.064 -21.630 -0.129 15.398 0.333 3.377 0.098 44.660 43.136
-2.400 -22.130 -0.044 -22.132 -0.043 -22.137 -0.044 -22.102 -0.047 -22.084 -0.048 -22.062 -0.049 -21.936 -0.057 -21.892 -0.064 -21.636 -0.129 15.334 0.334 3.401 0.100 44.659 43.136
-2.000 -22.131 -0.044 -22.132 -0.044 -22.139 -0.045 -22.105 -0.048 -22.088 -0.048 -22.066 -0.050 -21.942 -0.058 -21.898 -0.064 -21.642 -0.129 15.270 0.335 3.425 0.101 44.658 43.136
-1.600 -22.131 -0.045 -22.133 -0.044 -22.140 -0.045 -22.109 -0.048 -22.092 -0.049 -22.070 -0.050 -21.947 -0.058 -21.904 -0.065 -21.648 -0.129 15.207 0.336 3.448 0.103 44.656 43.137
-1.200 -22.132 -0.046 -22.134 -0.045 -22.142 -0.046 -22.112 -0.049 -22.096 -0.049 -22.074 -0.050 -21.952 -0.058 -21.909 -0.065 -21.653 -0.130 15.145 0.336 3.472 0.104 44.655 43.137
-0.800 -22.132 -0.047 -22.134 -0.046 -22.143 -0.046 -22.115 -0.049 -22.099 -0.049 -22.078 -0.051 -21.957 -0.059 -21.914 -0.065 -21.658 -0.130 15.083 0.337 3.495 0.106 44.654 43.137
-0.400 -22.132 -0.048 -22.135 -0.047 -22.144 -0.047 -22.118 -0.049 -22.103 -0.050 -22.082 -0.051 -21.962 -0.059 -21.919 -0.065 -21.664 -0.130 15.022 0.338 3.518 0.108 44.652 43.137
-0.000 -22.132 -0.048 -22.135 -0.048 -22.145 -0.048 -22.121 -0.050 -22.106 -0.050 -22.085 -0.051 -21.966 -0.059 -21.924 -0.066 -21.669 -0.130 14.961 0.338 3.541 0.109 44.651 43.136
0.400 -22.132 -0.049 -22.134 -0.048 -22.146 -0.048 -22.124 -0.050 -22.109 -0.051 -22.088 -0.052 -21.971 -0.059 -21.928 -0.066 -21.673 -0.130 14.901 0.338 3.564 0.111 44.649 43.135
0.800 -22.132 -0.050 -22.134 -0.049 -22.146 -0.049 -22.126 -0.051 -22.111 -0.051 -22.091 -0.052 -21.975 -0.060 -21.933 -0.066 -21.678 -0.130 14.840 0.338 3.586 0.112 44.648 43.134
1.200 -22.131 -0.051 -22.133 -0.050 -22.147 -0.049 -22.128 -0.051 -22.114 -0.052 -22.094 -0.053 -21.979 -0.060 -21.937 -0.067 -21.683 -0.130 14.780 0.338 3.608 0.113 44.646 43.132
1.600 -22.130 -0.051 -22.133 -0.050 -22.147 -0.050 -22.130 -0.052 -22.116 -0.052 -22.097 -0.053 -21.982 -0.060 -21.941 -0.067 -21.687 -0.130 14.721 0.338 3.631 0.115 44.644 43.130
2.000 -22.129 -0.052 -22.132 -0.051 -22.146 -0.050 -22.132 -0.052 -22.118 -0.052 -22.099 -0.053 -21.986 -0.061 -21.944 -0.067 -21.691 -0.130 14.661 0.337 3.653 0.116 44.643 43.127
2.400 -22.127 -0.052 -22.130 -0.052 -22.146 -0.051 -22.133 -0.052 -22.120 -0.053 -22.101 -0.054 -21.989 -0.061 -21.948 -0.067 -21.695 -0.130 14.602 0.336 3.674 0.117 44.641 43.124
2.800 -22.126 -0.053 -22.129 -0.052 -22.145 -0.051 -22.134 -0.053 -22.121 -0.053 -22.103 -0.054 -21.992 -0.061 -21.951 -0.068 -21.699 -0.130 14.543 0.335 3.696 0.118 44.639 43.120
3.200 -22.124 -0.053 -22.127 -0.053 -22.144 -0.052 -22.135 -0.053 -22.123 -0.053 -22.105 -0.054 -21.995 -0.062 -21.954 -0.068 -21.702 -0.130 14.483 0.334 3.718 0.119 44.637 43.116
3.600 -22.122 -0.054 -22.125 -0.053 -22.143 -0.052 -22.136 -0.054 -22.124 -0.054 -22.106 -0.055 -21.998 -0.062 -21.957 -0.068 -21.706 -0.130 14.424 0.333 3.739 0.120 44.635 43.112
4.000 -22.119 -0.054 -22.123 -0.053 -22.142 -0.052 -22.136 -0.054 -22.124 -0.054 -22.107 -0.055 -22.000 -0.062 -21.959 -0.069 -21.709 -0.130 14.365 0.331 3.760 0.121 44.632 43.107
4.400 -22.117 -0.055 -22.120 -0.054 -22.140 -0.053 -22.136 -0.054 -22.125 -0.055 -22.108 -0.055 -22.002 -0.063 -21.962 -0.069 -21.712 -0.130 14.306 0.329 3.781 0.122 44.630 43.101
4.800 -22.114 -0.055 -22.117 -0.054 -22.138 -0.053 -22.136 -0.055 -22.125 -0.055 -22.109 -0.056 -22.004 -0.063 -21.964 -0.069 -21.715 -0.130 14.248 0.327 3.801 0.122 44.628 43.095
5.200 -22.110 -0.055 -22.114 -0.054 -22.135 -0.053 -22.136 -0.055 -22.125 -0.055 -22.109 -0.056 -22.005 -0.063 -21.965 -0.069 -21.718 -0.129 14.189 0.324 3.822 0.123 44.625 43.088
5.600 -22.107 -0.055 -22.111 -0.055 -22.133 -0.053 -22.135 -0.055 -22.125 -0.056 -22.109 -0.056 -22.007 -0.064 -21.967 -0.070 -21.720 -0.129 14.131 0.322 3.842 0.124 44.623 43.081
6.000 -22.103 -0.056 -22.107 -0.055 -22.130 -0.054 -22.134 -0.056 -22.124 -0.056 -22.109 -0.057 -22.008 -0.064 -21.968 -0.070 -21.723 -0.129 14.072 0.319 3.862 0.124 44.620 43.074
6.400 -22.099 -0.056 -22.103 -0.055 -22.127 -0.054 -22.133 -0.056 -22.123 -0.056 -22.108 -0.057 -22.008 -0.064 -21.969 -0.070 -21.725 -0.129 14.013 0.316 3.881 0.125 44.617 43.066
6.800 -22.094 -0.056 -22.098 -0.055 -22.123 -0.054 -22.131 -0.056 -22.122 -0.057 -22.108 -0.057 -22.009 -0.065 -21.970 -0.070 -21.727 -0.129 13.954 0.313 3.901 0.125 44.614 43.057
7.200 -22.090 -0.056 -22.094 -0.055 -22.119 -0.054 -22.129 -0.057 -22.121 -0.057 -22.106 -0.058 -22.009 -0.065 -21.971 -0.071 -21.729 -0.128 13.895 0.309 3.920 0.125 44.611 43.049
7.600 -22.085 -0.056 -22.089 -0.056 -22.115 -0.054 -22.127 -0.057 -22.119 -0.057 -22.105 -0.058 -22.009 -0.065 -21.971 -0.071 -21.730 -0.128 13.835 0.306 3.940 0.125 44.608 43.039
8.000 -22.079 -0.057 -22.084 -0.056 -22.111 -0.054 -22.124 -0.057 -22.117 -0.057 -22.104 -0.058 -22.009 -0.066 -21.971 -0.071 -21.732 -0.128 13.775 0.302 3.959 0.126 44.604 43.030
8.400 -22.074 -0.057 -22.078 -0.056 -22.106 -0.055 -22.122 -0.057 -22.115 -0.058 -22.102 -0.058 -22.008 -0.066 -21.971 -0.072 -21.733 -0.128 13.714 0.299 3.978 0.126 44.601 43.020
8.800 -22.068 -0.057 -22.072 -0.056 -22.101 -0.055 -22.119 -0.057 -22.112 -0.058 -22.100 -0.059 -22.007 -0.066 -21.970 -0.072 -21.734 -0.127 13.653 0.295 3.998 0.126 44.597 43.009
9.200 -22.061 -0.057 -22.066 -0.056 -22.096 -0.055 -22.115 -0.058 -22.109 -0.058 -22.097 -0.059 -22.006 -0.067 -21.970 -0.072 -21.735 -0.127 13.592 0.292 4.017 0.126 44.594 42.999
9.600 -22.055 -0.057 -22.060 -0.056 -22.090 -0.055 -22.112 -0.058 -22.106 -0.058 -22.095 -0.059 -22.005 -0.067 -21.969 -0.072 -21.736 -0.127 13.530 0.288 4.036 0.126 44.590 42.988
10.000 -22.048 -0.057 -22.053 -0.056 -22.084 -0.055 -22.108 -0.058 -22.103 -0.058 -22.092 -0.059 -22.004 -0.067 -21.968 -0.072 -21.736 -0.126 13.467 0.284 4.056 0.126 44.586 42.977
10.400 -22.041 -0.057 -22.046 -0.056 -22.078 -0.055 -22.104 -0.058 -22.099 -0.058 -22.089 -0.059 -22.002 -0.067 -21.967 -0.073 -21.737 -0.126 13.405 0.280 4.075 0.126 44.582 42.966
10.800 -22.033 -0.057 -22.038 -0.056 -22.071 -0.055 -22.100 -0.058 -22.095 -0.059 -22.086 -0.059 -22.000 -0.068 -21.965 -0.073 -21.737 -0.126 13.341 0.277 4.094 0.126 44.578 42.954
11.200 -22.025 -0.057 -22.030 -0.056 -22.065 -0.055 -22.095 -0.058 -22.091 -0.059 -22.082 -0.060 -21.998 -0.068 -21.963 -0.073 -21.737 -0.125 13.278 0.273 4.114 0.126 44.574 42.943
11.600 -22.017 -0.057 -22.022 -0.056 -22.057 -0.055 -22.090 -0.058 -22.087 -0.059 -22.078 -0.060 -21.996 -0.068 -21.961 -0.073 -21.737 -0.125 13.214 0.269 4.133 0.126 44.569 42.931
12.000 -22.009 -0.057 -22.014 -0.056 -22.050 -0.055 -22.085 -0.058 -22.083 -0.059 -22.074 -0.060 -21.993 -0.068 -21.959 -0.073 -21.736 -0.124 13.140 0.265 4.157 0.126 44.565 42.918
12.400 -22.000 -0.057 -22.005 -0.057 -22.042 -0.055 -22.080 -0.058 -22.078 -0.059 -22.070 -0.060 -21.991 -0.068 -21.957 -0.073 -21.736 -0.124 13.083 0.262 4.173 0.126 44.561 42.907
12.800 -21.991 -0.058 -21.997 -0.057 -22.034 -0.055 -22.074 -0.058 -22.073 -0.059 -22.066 -0.060 -21.988 -0.068 -21.954 -0.073 -21.735 -0.123 13.010 0.258 4.197 0.126 44.556 42.894
13.200 -21.982 -0.058 -21.987 -0.057 -22.026 -0.055 -22.069 -0.058 -22.068 -0.059 -22.061 -0.060 -21.985 -0.068 -21.952 -0.073 -21.734 -0.122 12.952 0.256 4.213 0.126 44.551 42.884
13.600 -21.972 -0.058 -21.978 -0.057 -22.017 -0.055 -22.063 -0.058 -22.063 -0.059 -22.057 -0.060 -21.981 -0.068 -21.949 -0.073 -21.733 -0.122 12.878 0.252 4.237 0.127 44.546 42.871
14.000 -21.962 -0.058 -21.968 -0.057 -22.009 -0.055 -22.057 -0.058 -22.057 -0.059 -22.052 -0.060 -21.978 -0.068 -21.946 -0.073 -21.732 -0.121 12.812 0.249 4.257 0.127 44.542 42.859
14.400 -21.952 -0.058 -21.958 -0.057 -22.000 -0.055 -22.050 -0.058 -22.051 -0.058 -22.046 -0.059 -21.974 -0.068 -21.942 -0.073 -21.731 -0.121 12.746 0.245 4.277 0.127 44.537 42.847
14.800 -21.942 -0.058 -21.948 -0.057 -21.990 -0.055 -22.044 -0.058 -22.045 -0.058 -22.041 -0.059 -21.971 -0.068 -21.939 -0.073 -21.729 -0.120 12.679 0.242 4.298 0.127 44.532 42.835
15.200 -21.932 -0.058 -21.938 -0.057 -21.981 -0.055 -22.037 -0.058 -22.039 -0.058 -22.036 -0.059 -21.967 -0.068 -21.935 -0.072 -21.728 -0.119 12.613 0.239 4.318 0.127 44.527 42.823
15.600 -21.921 -0.059 -21.927 -0.058 -21.971 -0.055 -22.030 -0.058 -22.033 -0.058 -22.030 -0.059 -21.962 -0.068 -21.932 -0.072 -21.726 -0.119 12.547 0.236 4.338 0.127 44.522 42.812
16.000 -21.910 -0.059 -21.916 -0.058 -21.961 -0.055 -22.023 -0.057 -22.027 -0.058 -22.024 -0.059 -21.958 -0.067 -21.928 -0.072 -21.724 -0.118 12.480 0.234 4.359 0.127 44.516 42.800
16.400 -21.899 -0.059 -21.905 -0.058 -21.951 -0.055 -22.016 -0.057 -22.020 -0.057 -22.018 -0.058 -21.954 -0.067 -21.924 -0.072 -21.722 -0.117 12.414 0.231 4.379 0.128 44.511 42.788
16.800 -21.887 -0.059 -21.894 -0.058 -21.941 -0.055 -22.008 -0.057 -22.013 -0.057 -22.012 -0.058 -21.949 -0.067 -21.919 -0.071 -21.720 -0.116 12.348 0.228 4.400 0.128 44.506 42.777
17.200 -21.875 -0.059 -21.882 -0.058 -21.930 -0.055 -22.001 -0.057 -22.006 -0.057 -22.006 -0.058 -21.944 -0.066 -21.915 -0.071 -21.717 -0.115 12.282 0.225 4.421 0.128 44.501 42.765
17.600 -21.864 -0.059 -21.870 -0.058 -21.919 -0.055 -21.993 -0.056 -21.999 -0.056 -21.999 -0.057 -21.939 -0.066 -21.911 -0.070 -21.715 -0.115 12.216 0.223 4.441 0.128 44.496 42.753
18.000 -21.852 -0.059 -21.858 -0.058 -21.908 -0.055 -21.985 -0.056 -21.992 -0.056 -21.993 -0.057 -21.934 -0.065 -21.906 -0.070 -21.712 -0.114 12.150 0.220 4.462 0.129 44.490 42.742
18.400 -21.839 -0.059 -21.846 -0.058 -21.897 -0.055 -21.977 -0.055 -21.985 -0.056 -21.986 -0.057 -21.929 -0.065 -21.901 -0.069 -21.709 -0.113 12.085 0.218 4.483 0.129 44.485 42.730
18.800 -21.827 -0.060 -21.834 -0.058 -21.886 -0.055 -21.969 -0.055 -21.977 -0.055 -21.979 -0.056 -21.924 -0.064 -21.896 -0.069 -21.706 -0.112 12.020 0.215 4.503 0.129 44.479 42.719
19.200 -21.814 -0.060 -21.821 -0.058 -21.875 -0.055 -21.961 -0.055 -21.970 -0.055 -21.972 -0.056 -21.919 -0.064 -21.891 -0.068 -21.703 -0.111 11.964 0.214 4.518 0.130 44.474 42.709
19.600 -21.802 -0.060 -21.809 -0.059 -21.863 -0.055 -21.952 -0.054 -21.962 -0.054 -21.965 -0.055 -21.913 -0.063 -21.886 -0.067 -21.700 -0.110 11.890 0.211 4.545 0.130 44.469 42.696
20.000 -21.789 -0.060 -21.796 -0.059 -21.851 -0.055 -21.944 -0.054 -21.954 -0.054 -21.958 -0.055 -21.907 -0.063 -21.881 -0.067 -21.697 -0.109 11.825 0.209 4.566 0.130 44.463 42.685
20.400 -21.775 -0.060 -21.783 -0.059 -21.839 -0.055 -21.935 -0.053 -21.946 -0.053 -21.951 -0.054 -21.902 -0.062 -21.875 -0.066 -21.694 -0.108 11.761 0.207 4.587 0.131 44.458 42.674
20.800 -21.762 -0.060 -21.770 -0.059 -21.827 -0.054 -21.926 -0.053 -21.938 -0.053 -21.943 -0.054 -21.896 -0.061 -21.870 -0.065 -21.690 -0.108 11.707 0.205 4.601 0.131 44.452 42.664
21.200 -21.749 -0.060 -21.756 -0.059 -21.815 -0.054 -21.917 -0.052 -21.930 -0.052 -21.936 -0.053 -21.890 -0.061 -21.864 -0.065 -21.687 -0.107 11.634 0.202 4.628 0.132 44.447 42.652
21.600 -21.735 -0.060 -21.743 -0.058 -21.803 -0.054 -21.908 -0.052 -21.922 -0.052 -21.928 -0.053 -21.884 -0.060 -21.858 -0.064 -21.683 -0.106 11.571 0.200 4.649 0.132 44.441 42.640
22.000 -21.722 -0.060 -21.729 -0.058 -21.790 -0.054 -21.899 -0.051 -21.913 -0.051 -21.920 -0.052 -21.877 -0.059 -21.853 -0.063 -21.679 -0.105 11.508 0.198 4.670 0.132 44.436 42.629
22.400 -21.708 -0.059 -21.716 -0.058 -21.777 -0.054 -21.890 -0.051 -21.905 -0.051 -21.912 -0.052 -21.871 -0.058 -21.847 -0.062 -21.675 -0.104 11.446 0.196 4.691 0.133 44.430 42.618
22.800 -21.694 -0.059 -21.702 -0.058 -21.765 -0.054 -21.880 -0.050 -21.896 -0.050 -21.904 -0.051 -21.865 -0.058 -21.841 -0.061 -21.671 -0.103 11.384 0.194 4.712 0.133 44.424 42.607
