"Time (MJD)" cyan-5182.42 cyan-5182.42_err g-4746.48 g-4746.48_err i-7829.03 i-7829.03_err orange-6629.82 orange-6629.82_err r-6366.38 r-6366.38_err "Temp./1e3 (K)" "Temp. Err." "Radius/1e15 (cm)" "Radius Err." "Log10(Bol. Lum)" "Log10(Bol. Err)"
-20.000 -20.989 -0.115 -20.971 -0.103 -20.912 -0.110 -20.898 -0.116 -20.836 -0.162 13.247 0.420 2.482 0.109 44.131 42.742
-19.600 -21.014 -0.110 -20.996 -0.098 -20.938 -0.106 -20.924 -0.112 -20.861 -0.158 13.245 0.410 2.512 0.108 44.141 42.740
-19.200 -21.039 -0.105 -21.022 -0.093 -20.964 -0.103 -20.950 -0.109 -20.886 -0.155 13.239 0.401 2.544 0.107 44.151 42.738
-18.800 -21.064 -0.101 -21.047 -0.090 -20.991 -0.100 -20.977 -0.106 -20.912 -0.151 13.231 0.391 2.576 0.107 44.161 42.735
-18.400 -21.089 -0.097 -21.073 -0.086 -21.017 -0.098 -21.003 -0.104 -20.938 -0.149 13.220 0.381 2.610 0.106 44.171 42.732
-18.000 -21.114 -0.094 -21.099 -0.084 -21.044 -0.097 -21.030 -0.103 -20.963 -0.147 13.207 0.371 2.646 0.105 44.181 42.729
-17.600 -21.139 -0.092 -21.125 -0.082 -21.071 -0.096 -21.057 -0.102 -20.989 -0.145 13.192 0.362 2.682 0.104 44.191 42.725
-17.200 -21.165 -0.090 -21.151 -0.081 -21.097 -0.095 -21.083 -0.101 -21.015 -0.143 13.175 0.352 2.719 0.103 44.201 42.721
-16.800 -21.190 -0.089 -21.176 -0.080 -21.124 -0.095 -21.110 -0.101 -21.040 -0.142 13.158 0.342 2.757 0.101 44.210 42.718
-16.400 -21.214 -0.088 -21.202 -0.080 -21.151 -0.096 -21.137 -0.101 -21.066 -0.142 13.139 0.332 2.796 0.100 44.220 42.713
-16.000 -21.239 -0.088 -21.227 -0.080 -21.177 -0.096 -21.163 -0.102 -21.091 -0.142 13.119 0.322 2.835 0.099 44.229 42.709
-15.600 -21.263 -0.088 -21.252 -0.081 -21.203 -0.097 -21.189 -0.102 -21.116 -0.142 13.098 0.312 2.875 0.098 44.239 42.704
-15.200 -21.287 -0.088 -21.277 -0.081 -21.229 -0.098 -21.215 -0.103 -21.141 -0.142 13.076 0.302 2.915 0.096 44.248 42.699
-14.800 -21.310 -0.088 -21.301 -0.082 -21.254 -0.098 -21.240 -0.104 -21.166 -0.142 13.053 0.292 2.956 0.094 44.257 42.693
-14.400 -21.333 -0.089 -21.325 -0.083 -21.279 -0.099 -21.265 -0.104 -21.190 -0.143 13.027 0.282 2.997 0.093 44.266 42.686
-14.000 -21.355 -0.090 -21.348 -0.084 -21.304 -0.100 -21.290 -0.105 -21.213 -0.143 12.998 0.272 3.039 0.091 44.274 42.679
-13.600 -21.377 -0.091 -21.371 -0.086 -21.328 -0.101 -21.314 -0.106 -21.237 -0.144 12.965 0.262 3.082 0.089 44.282 42.670
-13.200 -21.397 -0.093 -21.393 -0.087 -21.351 -0.101 -21.337 -0.106 -21.259 -0.145 12.929 0.252 3.127 0.087 44.289 42.661
-12.800 -21.417 -0.094 -21.413 -0.088 -21.374 -0.102 -21.360 -0.107 -21.282 -0.145 12.889 0.242 3.172 0.086 44.296 42.651
-12.400 -21.436 -0.096 -21.434 -0.090 -21.396 -0.102 -21.383 -0.107 -21.303 -0.146 12.846 0.232 3.217 0.084 44.303 42.640
-12.000 -21.454 -0.097 -21.453 -0.091 -21.417 -0.103 -21.404 -0.108 -21.324 -0.147 12.801 0.223 3.264 0.082 44.309 42.630
-11.600 -21.471 -0.099 -21.471 -0.092 -21.438 -0.103 -21.425 -0.108 -21.345 -0.147 12.754 0.215 3.310 0.080 44.315 42.619
-11.200 -21.488 -0.100 -21.488 -0.093 -21.457 -0.103 -21.445 -0.108 -21.365 -0.148 12.705 0.207 3.356 0.079 44.320 42.609
-10.800 -21.503 -0.101 -21.505 -0.094 -21.476 -0.103 -21.464 -0.108 -21.384 -0.148 12.656 0.200 3.402 0.078 44.326 42.599
-10.400 -21.517 -0.102 -21.521 -0.095 -21.494 -0.102 -21.482 -0.107 -21.402 -0.148 12.605 0.194 3.448 0.077 44.330 42.590
-10.000 -21.531 -0.103 -21.535 -0.096 -21.511 -0.102 -21.499 -0.107 -21.420 -0.148 12.554 0.189 3.494 0.076 44.335 42.582
-9.600 -21.544 -0.104 -21.549 -0.096 -21.528 -0.101 -21.516 -0.106 -21.437 -0.148 12.503 0.184 3.539 0.076 44.339 42.575
-9.200 -21.556 -0.105 -21.562 -0.096 -21.543 -0.100 -21.531 -0.106 -21.453 -0.148 12.452 0.180 3.583 0.076 44.342 42.569
-8.800 -21.567 -0.105 -21.574 -0.096 -21.557 -0.100 -21.546 -0.105 -21.469 -0.148 12.401 0.177 3.626 0.076 44.346 42.565
-8.400 -21.577 -0.105 -21.585 -0.096 -21.571 -0.098 -21.560 -0.104 -21.483 -0.148 12.350 0.175 3.669 0.076 44.348 42.561
-8.000 -21.586 -0.105 -21.595 -0.095 -21.583 -0.097 -21.573 -0.102 -21.497 -0.147 12.299 0.173 3.710 0.077 44.351 42.559
-7.600 -21.594 -0.105 -21.604 -0.095 -21.594 -0.096 -21.585 -0.101 -21.510 -0.147 12.249 0.172 3.750 0.078 44.353 42.558
-7.200 -21.601 -0.104 -21.612 -0.094 -21.605 -0.095 -21.596 -0.100 -21.522 -0.146 12.200 0.172 3.789 0.079 44.355 42.559
-6.800 -21.608 -0.104 -21.619 -0.093 -21.615 -0.093 -21.605 -0.099 -21.534 -0.146 12.152 0.173 3.826 0.081 44.357 42.562
-6.400 -21.614 -0.103 -21.625 -0.092 -21.623 -0.092 -21.614 -0.097 -21.544 -0.145 12.105 0.175 3.861 0.083 44.358 42.566
-6.000 -21.619 -0.102 -21.631 -0.091 -21.631 -0.090 -21.622 -0.096 -21.554 -0.144 12.060 0.177 3.895 0.085 44.359 42.573
-5.600 -21.623 -0.102 -21.635 -0.090 -21.637 -0.089 -21.629 -0.094 -21.563 -0.143 12.017 0.181 3.926 0.088 44.360 42.581
-5.200 -21.626 -0.101 -21.639 -0.089 -21.643 -0.087 -21.635 -0.093 -21.572 -0.142 11.976 0.186 3.955 0.092 44.360 42.591
-4.800 -21.629 -0.100 -21.642 -0.088 -21.647 -0.086 -21.641 -0.092 -21.579 -0.141 11.936 0.191 3.982 0.096 44.361 42.602
-4.400 -21.631 -0.099 -21.644 -0.087 -21.651 -0.085 -21.645 -0.091 -21.586 -0.141 11.899 0.198 4.007 0.100 44.361 42.616
-4.000 -21.632 -0.099 -21.646 -0.086 -21.654 -0.084 -21.648 -0.090 -21.592 -0.140 11.863 0.205 4.030 0.105 44.360 42.630
-3.600 -21.633 -0.099 -21.647 -0.085 -21.656 -0.083 -21.651 -0.089 -21.597 -0.139 11.827 0.213 4.052 0.110 44.360 42.644
-3.200 -21.633 -0.098 -21.647 -0.085 -21.657 -0.083 -21.653 -0.088 -21.602 -0.138 11.793 0.221 4.072 0.115 44.359 42.659
-2.800 -21.632 -0.099 -21.646 -0.085 -21.658 -0.082 -21.654 -0.088 -21.606 -0.137 11.759 0.229 4.090 0.121 44.358 42.674
-2.400 -21.631 -0.099 -21.646 -0.085 -21.658 -0.082 -21.654 -0.087 -21.610 -0.136 11.726 0.238 4.108 0.127 44.357 42.689
-2.000 -21.630 -0.100 -21.644 -0.085 -21.658 -0.081 -21.655 -0.087 -21.613 -0.135 11.694 0.247 4.124 0.132 44.355 42.704
-1.600 -21.628 -0.101 -21.642 -0.086 -21.657 -0.081 -21.654 -0.087 -21.615 -0.133 11.662 0.256 4.140 0.138 44.354 42.719
-1.200 -21.625 -0.102 -21.640 -0.086 -21.656 -0.081 -21.653 -0.086 -21.617 -0.132 11.630 0.265 4.155 0.144 44.352 42.733
-0.800 -21.623 -0.103 -21.638 -0.088 -21.654 -0.081 -21.652 -0.086 -21.619 -0.131 11.598 0.274 4.169 0.150 44.350 42.747
-0.400 -21.620 -0.105 -21.635 -0.089 -21.652 -0.081 -21.651 -0.086 -21.620 -0.130 11.567 0.284 4.183 0.156 44.349 42.761
-0.000 -21.617 -0.107 -21.632 -0.091 -21.650 -0.082 -21.649 -0.086 -21.621 -0.128 11.535 0.293 4.196 0.162 44.347 42.775
0.400 -21.613 -0.109 -21.629 -0.092 -21.648 -0.082 -21.647 -0.085 -21.621 -0.127 11.504 0.303 4.209 0.168 44.344 42.788
0.800 -21.610 -0.111 -21.626 -0.094 -21.645 -0.082 -21.644 -0.085 -21.621 -0.125 11.471 0.312 4.222 0.174 44.342 42.801
1.200 -21.606 -0.113 -21.622 -0.096 -21.642 -0.082 -21.642 -0.085 -21.621 -0.124 11.439 0.321 4.234 0.181 44.340 42.813
1.600 -21.601 -0.115 -21.618 -0.098 -21.639 -0.083 -21.639 -0.085 -21.621 -0.122 11.405 0.330 4.248 0.187 44.337 42.825
2.000 -21.597 -0.117 -21.614 -0.100 -21.635 -0.083 -21.636 -0.085 -21.620 -0.120 11.370 0.339 4.261 0.193 44.335 42.835
2.400 -21.592 -0.119 -21.609 -0.102 -21.632 -0.083 -21.633 -0.085 -21.619 -0.118 11.333 0.347 4.275 0.199 44.332 42.845
2.800 -21.587 -0.121 -21.605 -0.104 -21.628 -0.084 -21.629 -0.085 -21.618 -0.117 11.296 0.355 4.290 0.205 44.329 42.853
3.200 -21.582 -0.123 -21.600 -0.106 -21.624 -0.085 -21.626 -0.085 -21.616 -0.115 11.257 0.362 4.305 0.210 44.326 42.860
3.600 -21.576 -0.125 -21.595 -0.108 -21.620 -0.085 -21.622 -0.085 -21.614 -0.113 11.217 0.369 4.320 0.216 44.323 42.866
4.000 -21.570 -0.127 -21.589 -0.110 -21.616 -0.086 -21.618 -0.085 -21.612 -0.112 11.175 0.375 4.337 0.221 44.320 42.870
4.400 -21.564 -0.129 -21.584 -0.112 -21.612 -0.087 -21.614 -0.086 -21.610 -0.110 11.133 0.379 4.354 0.226 44.317 42.873
4.800 -21.558 -0.131 -21.578 -0.114 -21.607 -0.088 -21.610 -0.087 -21.608 -0.109 11.089 0.383 4.371 0.230 44.314 42.875
5.200 -21.551 -0.133 -21.571 -0.116 -21.602 -0.089 -21.605 -0.088 -21.605 -0.108 11.045 0.387 4.388 0.235 44.310 42.876
5.600 -21.544 -0.135 -21.565 -0.118 -21.597 -0.091 -21.601 -0.089 -21.603 -0.107 11.001 0.389 4.406 0.238 44.307 42.875
6.000 -21.536 -0.136 -21.558 -0.119 -21.592 -0.092 -21.596 -0.090 -21.600 -0.106 10.956 0.391 4.423 0.242 44.303 42.873
6.400 -21.528 -0.138 -21.551 -0.121 -21.587 -0.094 -21.591 -0.091 -21.597 -0.106 10.912 0.392 4.440 0.245 44.299 42.870
6.800 -21.520 -0.140 -21.543 -0.123 -21.581 -0.096 -21.586 -0.093 -21.593 -0.107 10.868 0.393 4.456 0.248 44.295 42.866
7.200 -21.511 -0.141 -21.535 -0.125 -21.575 -0.097 -21.580 -0.094 -21.590 -0.107 10.824 0.393 4.472 0.251 44.291 42.861
7.600 -21.501 -0.143 -21.527 -0.126 -21.569 -0.099 -21.575 -0.096 -21.586 -0.108 10.781 0.393 4.486 0.254 44.287 42.855
8.000 -21.492 -0.144 -21.518 -0.128 -21.562 -0.101 -21.569 -0.098 -21.582 -0.110 10.738 0.393 4.501 0.256 44.283 42.848
8.400 -21.481 -0.146 -21.508 -0.130 -21.556 -0.103 -21.562 -0.100 -21.578 -0.112 10.695 0.392 4.514 0.259 44.279 42.840
8.800 -21.471 -0.148 -21.498 -0.131 -21.548 -0.105 -21.556 -0.102 -21.574 -0.114 10.651 0.391 4.528 0.261 44.274 42.831
9.200 -21.459 -0.149 -21.488 -0.133 -21.541 -0.107 -21.549 -0.104 -21.570 -0.117 10.607 0.390 4.542 0.264 44.270 42.822
9.600 -21.447 -0.151 -21.477 -0.134 -21.533 -0.108 -21.542 -0.106 -21.565 -0.120 10.562 0.389 4.555 0.266 44.265 42.813
10.000 -21.435 -0.152 -21.466 -0.136 -21.525 -0.110 -21.534 -0.108 -21.560 -0.122 10.504 0.387 4.577 0.269 44.259 42.801
10.400 -21.422 -0.154 -21.455 -0.137 -21.517 -0.112 -21.526 -0.109 -21.555 -0.125 10.466 0.386 4.584 0.271 44.255 42.792
10.800 -21.409 -0.155 -21.442 -0.139 -21.508 -0.113 -21.518 -0.111 -21.549 -0.128 10.421 0.385 4.596 0.274 44.249 42.781
11.200 -21.396 -0.157 -21.430 -0.140 -21.499 -0.115 -21.510 -0.113 -21.544 -0.132 10.361 0.383 4.619 0.277 44.244 42.768
11.600 -21.382 -0.158 -21.417 -0.141 -21.489 -0.116 -21.501 -0.114 -21.538 -0.135 10.322 0.383 4.625 0.279 44.238 42.759
12.000 -21.367 -0.159 -21.404 -0.142 -21.479 -0.117 -21.492 -0.116 -21.532 -0.138 10.263 0.381 4.646 0.282 44.232 42.746
12.400 -21.352 -0.160 -21.390 -0.143 -21.469 -0.118 -21.483 -0.117 -21.525 -0.141 10.224 0.381 4.652 0.285 44.227 42.736
12.800 -21.337 -0.161 -21.376 -0.144 -21.459 -0.119 -21.473 -0.119 -21.519 -0.144 10.164 0.379 4.673 0.289 44.220 42.723
13.200 -21.322 -0.162 -21.362 -0.144 -21.448 -0.120 -21.463 -0.120 -21.512 -0.146 10.125 0.379 4.679 0.292 44.215 42.713
13.600 -21.306 -0.163 -21.347 -0.145 -21.437 -0.121 -21.453 -0.121 -21.505 -0.149 10.065 0.378 4.699 0.295 44.208 42.699
14.000 -21.290 -0.164 -21.332 -0.145 -21.426 -0.121 -21.442 -0.122 -21.497 -0.152 10.015 0.377 4.712 0.299 44.202 42.687
14.400 -21.273 -0.164 -21.316 -0.146 -21.414 -0.122 -21.431 -0.123 -21.490 -0.154 9.965 0.377 4.724 0.302 44.195 42.675
14.800 -21.256 -0.165 -21.301 -0.146 -21.402 -0.123 -21.420 -0.124 -21.482 -0.157 9.915 0.376 4.736 0.306 44.189 42.663
15.200 -21.239 -0.165 -21.285 -0.147 -21.390 -0.123 -21.409 -0.124 -21.474 -0.160 9.865 0.376 4.748 0.309 44.182 42.651
15.600 -21.221 -0.166 -21.268 -0.147 -21.377 -0.124 -21.397 -0.125 -21.466 -0.162 9.816 0.376 4.760 0.313 44.176 42.639
16.000 -21.204 -0.166 -21.252 -0.147 -21.364 -0.124 -21.385 -0.126 -21.457 -0.164 9.766 0.375 4.771 0.317 44.169 42.627
16.400 -21.185 -0.167 -21.235 -0.147 -21.351 -0.125 -21.372 -0.127 -21.448 -0.167 9.717 0.375 4.782 0.321 44.162 42.615
16.800 -21.167 -0.167 -21.217 -0.148 -21.338 -0.126 -21.360 -0.128 -21.439 -0.169 9.668 0.375 4.793 0.325 44.155 42.603
17.200 -21.149 -0.167 -21.200 -0.148 -21.324 -0.127 -21.347 -0.129 -21.430 -0.171 9.619 0.375 4.803 0.329 44.148 42.591
17.600 -21.130 -0.168 -21.182 -0.148 -21.310 -0.128 -21.334 -0.131 -21.421 -0.173 9.571 0.376 4.813 0.333 44.141 42.579
18.000 -21.111 -0.168 -21.164 -0.149 -21.296 -0.129 -21.321 -0.132 -21.411 -0.175 9.523 0.376 4.822 0.338 44.134 42.568
18.400 -21.092 -0.169 -21.146 -0.149 -21.281 -0.130 -21.307 -0.133 -21.401 -0.177 9.475 0.377 4.832 0.343 44.127 42.557
18.800 -21.072 -0.170 -21.128 -0.150 -21.267 -0.131 -21.293 -0.135 -21.391 -0.179 9.428 0.377 4.841 0.348 44.120 42.547
19.200 -21.053 -0.170 -21.110 -0.151 -21.252 -0.133 -21.279 -0.136 -21.381 -0.181 9.381 0.378 4.849 0.353 44.113 42.537
19.600 -21.033 -0.171 -21.091 -0.152 -21.237 -0.134 -21.265 -0.138 -21.371 -0.183 9.334 0.379 4.858 0.358 44.106 42.527
20.000 -21.013 -0.172 -21.072 -0.153 -21.222 -0.136 -21.251 -0.140 -21.360 -0.185 9.288 0.380 4.866 0.363 44.099 42.517
20.400 -20.993 -0.173 -21.054 -0.154 -21.206 -0.138 -21.236 -0.142 -21.349 -0.186 9.242 0.381 4.874 0.368 44.092 42.508
20.800 -20.973 -0.174 -21.035 -0.155 -21.191 -0.140 -21.222 -0.144 -21.338 -0.188 9.196 0.382 4.882 0.373 44.085 42.499
21.200 -20.953 -0.175 -21.016 -0.157 -21.175 -0.142 -21.207 -0.146 -21.328 -0.189 9.151 0.382 4.891 0.378 44.077 42.491
21.600 -20.933 -0.176 -20.997 -0.158 -21.160 -0.144 -21.192 -0.147 -21.317 -0.191 9.106 0.383 4.899 0.383 44.070 42.482
22.000 -20.913 -0.177 -20.978 -0.160 -21.144 -0.145 -21.178 -0.149 -21.305 -0.192 9.061 0.384 4.907 0.388 44.063 42.474
22.400 -20.893 -0.178 -20.958 -0.161 -21.129 -0.147 -21.163 -0.151 -21.294 -0.193 9.017 0.384 4.915 0.393 44.056 42.466
22.800 -20.872 -0.179 -20.939 -0.162 -21.113 -0.149 -21.148 -0.153 -21.283 -0.194 8.973 0.385 4.923 0.398 44.049 42.459
23.200 -20.852 -0.180 -20.920 -0.164 -21.097 -0.151 -21.133 -0.154 -21.271 -0.195 8.929 0.385 4.931 0.403 44.042 42.452
23.600 -20.831 -0.181 -20.901 -0.165 -21.081 -0.152 -21.118 -0.156 -21.260 -0.196 8.886 0.385 4.939 0.408 44.035 42.444
24.000 -20.811 -0.182 -20.881 -0.166 -21.065 -0.154 -21.103 -0.157 -21.248 -0.197 8.843 0.385 4.947 0.412 44.028 42.438
24.400 -20.790 -0.183 -20.862 -0.167 -21.050 -0.155 -21.088 -0.158 -21.237 -0.197 8.800 0.385 4.955 0.417 44.021 42.431
24.800 -20.770 -0.183 -20.842 -0.168 -21.034 -0.156 -21.073 -0.159 -21.225 -0.197 8.758 0.385 4.962 0.421 44.014 42.425
25.200 -20.749 -0.183 -20.823 -0.168 -21.018 -0.157 -21.058 -0.160 -21.213 -0.197 8.717 0.385 4.970 0.425 44.007 42.419
25.600 -20.729 -0.184 -20.804 -0.169 -21.002 -0.157 -21.043 -0.161 -21.202 -0.197 8.676 0.384 4.977 0.429 44.000 42.413
26.000 -20.708 -0.183 -20.784 -0.169 -20.986 -0.158 -21.028 -0.161 -21.190 -0.197 8.635 0.384 4.984 0.433 43.993 42.407
26.400 -20.688 -0.183 -20.765 -0.169 -20.971 -0.158 -21.013 -0.161 -21.178 -0.196 8.595 0.383 4.991 0.437 43.986 42.401
26.800 -20.667 -0.183 -20.745 -0.168 -20.955 -0.158 -20.998 -0.161 -21.166 -0.195 8.556 0.383 4.997 0.441 43.979 42.396
27.200 -20.647 -0.182 -20.726 -0.168 -20.939 -0.157 -20.983 -0.160 -21.154 -0.194 8.518 0.382 5.003 0.444 43.973 42.391
27.600 -20.626 -0.181 -20.707 -0.167 -20.923 -0.156 -20.968 -0.159 -21.142 -0.193 8.480 0.381 5.009 0.447 43.966 42.386
28.000 -20.606 -0.180 -20.687 -0.166 -20.908 -0.155 -20.953 -0.158 -21.130 -0.191 8.442 0.380 5.014 0.450 43.959 42.381
28.400 -20.585 -0.178 -20.668 -0.164 -20.892 -0.154 -20.938 -0.156 -21.118 -0.189 8.406 0.379 5.019 0.453 43.952 42.376
28.800 -20.565 -0.177 -20.649 -0.163 -20.876 -0.152 -20.924 -0.155 -21.106 -0.187 8.370 0.378 5.023 0.456 43.946 42.371
29.200 -20.545 -0.175 -20.630 -0.161 -20.861 -0.150 -20.909 -0.152 -21.094 -0.185 8.335 0.377 5.027 0.458 43.939 42.366
29.600 -20.525 -0.173 -20.611 -0.158 -20.845 -0.148 -20.894 -0.150 -21.082 -0.183 8.301 0.375 5.030 0.460 43.932 42.361
30.000 -20.505 -0.171 -20.592 -0.156 -20.830 -0.145 -20.879 -0.147 -21.069 -0.180 8.268 0.374 5.032 0.462 43.926 42.356
30.400 -20.485 -0.168 -20.573 -0.153 -20.815 -0.142 -20.865 -0.144 -21.057 -0.177 8.236 0.372 5.033 0.464 43.919 42.351
30.800 -20.465 -0.166 -20.554 -0.150 -20.799 -0.139 -20.850 -0.141 -21.045 -0.175 8.204 0.371 5.034 0.465 43.913 42.346
31.200 -20.445 -0.163 -20.535 -0.147 -20.784 -0.136 -20.836 -0.138 -21.032 -0.172 8.174 0.369 5.033 0.466 43.906 42.340
31.600 -20.425 -0.160 -20.516 -0.144 -20.769 -0.132 -20.821 -0.134 -21.020 -0.169 8.145 0.368 5.031 0.467 43.900 42.334
32.000 -20.406 -0.158 -20.498 -0.141 -20.754 -0.128 -20.807 -0.131 -21.007 -0.166 8.118 0.366 5.028 0.467 43.893 42.328
32.400 -20.386 -0.155 -20.479 -0.138 -20.739 -0.125 -20.792 -0.127 -20.994 -0.163 8.091 0.364 5.023 0.467 43.887 42.322
32.800 -20.367 -0.152 -20.461 -0.135 -20.724 -0.121 -20.778 -0.123 -20.981 -0.160 8.066 0.363 5.017 0.467 43.880 42.315
33.200 -20.348 -0.150 -20.443 -0.132 -20.708 -0.117 -20.763 -0.120 -20.968 -0.157 8.043 0.361 5.009 0.466 43.874 42.308
33.600 -20.330 -0.148 -20.425 -0.129 -20.693 -0.114 -20.749 -0.116 -20.955 -0.154 8.021 0.359 5.000 0.465 43.868 42.301
34.000 -20.311 -0.146 -20.407 -0.126 -20.678 -0.111 -20.734 -0.113 -20.942 -0.152 8.001 0.358 4.988 0.464 43.861 42.294
34.400 -20.293 -0.144 -20.390 -0.124 -20.663 -0.108 -20.720 -0.111 -20.928 -0.150 7.983 0.356 4.975 0.463 43.855 42.286
34.800 -20.276 -0.143 -20.373 -0.123 -20.648 -0.106 -20.705 -0.109 -20.915 -0.149 7.967 0.355 4.959 0.461 43.849 42.279
35.200 -20.258 -0.143 -20.356 -0.122 -20.633 -0.105 -20.690 -0.107 -20.901 -0.149 7.952 0.354 4.941 0.460 43.842 42.273
35.600 -20.241 -0.143 -20.339 -0.122 -20.618 -0.104 -20.675 -0.107 -20.887 -0.149 7.940 0.354 4.921 0.458 43.836 42.267
36.000 -20.225 -0.145 -20.323 -0.123 -20.603 -0.105 -20.660 -0.107 -20.873 -0.150 7.931 0.354 4.898 0.457 43.830 42.262
36.400 -20.208 -0.147 -20.307 -0.125 -20.587 -0.106 -20.645 -0.109 -20.858 -0.152 7.924 0.355 4.872 0.457 43.824 42.258
36.800 -20.193 -0.150 -20.291 -0.128 -20.572 -0.109 -20.630 -0.112 -20.844 -0.154 7.920 0.356 4.844 0.456 43.818 42.256
37.200 -20.178 -0.154 -20.276 -0.132 -20.556 -0.113 -20.614 -0.116 -20.829 -0.158 7.918 0.358 4.812 0.456 43.812 42.254
37.600 -20.163 -0.158 -20.261 -0.137 -20.540 -0.118 -20.598 -0.120 -20.814 -0.162 7.918 0.361 4.779 0.456 43.806 42.253
