"Time (MJD)" g-4746.48 g-4746.48_err i-7645.77 i-7645.77_err orange-6629.82 orange-6629.82_err r-6198.96 r-6198.96_err r-6366.38 r-6366.38_err "Temp./1e3 (K)" "Temp. Err." "Radius/1e15 (cm)" "Radius Err." "Log10(Bol. Lum)" "Log10(Bol. Err)"
-20.000 -19.534 -0.183 -19.308 -0.125 -19.280 -0.125 -19.238 -0.129 -19.097 -0.199 14.530 1.161 1.078 0.098 43.567 42.713
-19.600 -19.585 -0.175 -19.363 -0.119 -19.335 -0.119 -19.294 -0.124 -19.151 -0.195 16.653 0.430 0.953 0.026 43.697 42.394
-19.200 -19.637 -0.168 -19.419 -0.115 -19.392 -0.116 -19.350 -0.121 -19.206 -0.193 16.548 0.371 0.984 0.023 43.714 42.348
-18.800 -19.688 -0.161 -19.476 -0.113 -19.449 -0.114 -19.407 -0.119 -19.262 -0.192 16.421 0.309 1.018 0.020 43.730 42.285
-18.400 -19.740 -0.156 -19.533 -0.112 -19.506 -0.113 -19.465 -0.119 -19.318 -0.192 16.274 0.246 1.055 0.017 43.745 42.201
-18.000 -19.791 -0.152 -19.591 -0.113 -19.564 -0.114 -19.523 -0.121 -19.375 -0.192 16.108 0.184 1.095 0.013 43.760 42.089
-17.600 -19.842 -0.149 -19.649 -0.114 -19.623 -0.116 -19.582 -0.123 -19.432 -0.194 15.927 0.124 1.138 0.010 43.773 41.934
-17.200 -19.892 -0.146 -19.707 -0.117 -19.681 -0.119 -19.641 -0.126 -19.489 -0.197 15.732 0.070 1.184 0.006 43.786 41.696
-16.800 -19.942 -0.144 -19.765 -0.119 -19.740 -0.122 -19.700 -0.129 -19.547 -0.199 15.527 0.028 1.233 0.002 43.799 41.314
-16.400 -19.992 -0.142 -19.823 -0.122 -19.798 -0.125 -19.759 -0.133 -19.604 -0.203 15.314 0.044 1.285 0.004 43.811 41.517
-16.000 -20.041 -0.141 -19.881 -0.126 -19.856 -0.129 -19.817 -0.137 -19.662 -0.206 15.095 0.083 1.340 0.008 43.822 41.808
-15.600 -20.089 -0.140 -19.938 -0.129 -19.914 -0.132 -19.876 -0.141 -19.719 -0.209 14.874 0.120 1.398 0.013 43.833 41.981
-15.200 -20.136 -0.139 -19.994 -0.132 -19.971 -0.136 -19.933 -0.144 -19.776 -0.213 14.651 0.154 1.459 0.018 43.844 42.099
-14.800 -20.182 -0.138 -20.050 -0.135 -20.027 -0.139 -19.990 -0.148 -19.832 -0.216 14.428 0.184 1.522 0.023 43.855 42.186
-14.400 -20.227 -0.137 -20.105 -0.138 -20.083 -0.142 -20.046 -0.151 -19.887 -0.219 14.207 0.211 1.588 0.028 43.865 42.253
-14.000 -20.271 -0.136 -20.159 -0.140 -20.138 -0.145 -20.102 -0.154 -19.942 -0.222 13.988 0.233 1.657 0.033 43.875 42.306
-13.600 -20.314 -0.136 -20.211 -0.142 -20.191 -0.147 -20.156 -0.157 -19.996 -0.225 13.772 0.253 1.729 0.039 43.884 42.350
-13.200 -20.355 -0.135 -20.263 -0.144 -20.243 -0.149 -20.209 -0.159 -20.049 -0.228 13.559 0.270 1.802 0.045 43.894 42.385
-12.800 -20.395 -0.134 -20.313 -0.146 -20.294 -0.151 -20.261 -0.161 -20.100 -0.230 13.351 0.284 1.878 0.050 43.902 42.415
-12.400 -20.434 -0.133 -20.362 -0.147 -20.344 -0.152 -20.311 -0.163 -20.151 -0.232 13.148 0.295 1.956 0.056 43.911 42.439
-12.000 -20.470 -0.132 -20.409 -0.148 -20.391 -0.153 -20.360 -0.164 -20.200 -0.233 12.951 0.305 2.036 0.062 43.919 42.458
-11.600 -20.506 -0.131 -20.454 -0.148 -20.437 -0.154 -20.407 -0.164 -20.247 -0.234 12.759 0.312 2.117 0.068 43.927 42.474
-11.200 -20.539 -0.130 -20.497 -0.148 -20.482 -0.154 -20.452 -0.165 -20.293 -0.235 12.574 0.318 2.199 0.074 43.935 42.487
-10.800 -20.570 -0.129 -20.539 -0.148 -20.524 -0.154 -20.496 -0.164 -20.337 -0.235 12.396 0.322 2.282 0.079 43.942 42.498
-10.400 -20.600 -0.128 -20.578 -0.147 -20.564 -0.153 -20.537 -0.164 -20.379 -0.235 12.224 0.325 2.365 0.085 43.949 42.507
-10.000 -20.628 -0.128 -20.615 -0.146 -20.602 -0.152 -20.576 -0.162 -20.420 -0.235 12.060 0.327 2.448 0.091 43.956 42.514
-9.600 -20.653 -0.128 -20.650 -0.145 -20.638 -0.150 -20.613 -0.161 -20.458 -0.235 11.904 0.329 2.530 0.096 43.962 42.520
-9.200 -20.677 -0.129 -20.682 -0.143 -20.671 -0.148 -20.648 -0.159 -20.494 -0.234 11.757 0.329 2.610 0.102 43.967 42.524
-8.800 -20.698 -0.130 -20.712 -0.141 -20.702 -0.146 -20.680 -0.156 -20.527 -0.233 11.618 0.329 2.689 0.107 43.972 42.527
-8.400 -20.718 -0.131 -20.740 -0.139 -20.730 -0.144 -20.709 -0.154 -20.559 -0.231 11.489 0.326 2.764 0.111 43.977 42.528
-8.000 -20.735 -0.131 -20.764 -0.136 -20.756 -0.141 -20.736 -0.151 -20.588 -0.230 11.370 0.322 2.836 0.114 43.981 42.526
-7.600 -20.750 -0.132 -20.786 -0.134 -20.778 -0.138 -20.760 -0.147 -20.615 -0.228 11.261 0.316 2.903 0.116 43.985 42.519
-7.200 -20.764 -0.133 -20.805 -0.131 -20.798 -0.134 -20.780 -0.144 -20.639 -0.226 11.164 0.306 2.965 0.116 43.988 42.508
-6.800 -20.775 -0.133 -20.821 -0.128 -20.815 -0.131 -20.798 -0.140 -20.661 -0.225 11.078 0.292 3.020 0.115 43.991 42.491
-6.400 -20.784 -0.134 -20.834 -0.124 -20.829 -0.128 -20.813 -0.137 -20.680 -0.223 11.004 0.275 3.069 0.111 43.993 42.466
-6.000 -20.792 -0.133 -20.844 -0.121 -20.839 -0.124 -20.825 -0.133 -20.697 -0.221 10.942 0.253 3.109 0.104 43.994 42.431
-5.600 -20.798 -0.133 -20.852 -0.118 -20.847 -0.121 -20.833 -0.130 -20.712 -0.219 10.891 0.228 3.142 0.095 43.996 42.387
-5.200 -20.802 -0.132 -20.857 -0.115 -20.853 -0.117 -20.840 -0.127 -20.724 -0.217 10.850 0.200 3.168 0.085 43.996 42.330
-4.800 -20.805 -0.130 -20.860 -0.112 -20.856 -0.114 -20.843 -0.123 -20.735 -0.216 10.816 0.170 3.188 0.073 43.996 42.259
-4.400 -20.806 -0.129 -20.861 -0.109 -20.857 -0.111 -20.845 -0.120 -20.743 -0.214 10.791 0.139 3.202 0.060 43.996 42.170
-4.000 -20.806 -0.126 -20.860 -0.106 -20.856 -0.108 -20.845 -0.117 -20.750 -0.213 10.771 0.107 3.210 0.047 43.995 42.056
-3.600 -20.805 -0.124 -20.858 -0.103 -20.854 -0.105 -20.843 -0.115 -20.755 -0.212 10.757 0.076 3.214 0.033 43.994 41.906
-3.200 -20.802 -0.121 -20.854 -0.101 -20.850 -0.103 -20.840 -0.113 -20.759 -0.211 10.748 0.048 3.214 0.021 43.992 41.703
-2.800 -20.799 -0.118 -20.849 -0.099 -20.845 -0.101 -20.836 -0.111 -20.762 -0.210 10.744 0.029 3.210 0.013 43.990 41.479
-2.400 -20.795 -0.115 -20.843 -0.098 -20.840 -0.100 -20.831 -0.110 -20.763 -0.210 10.743 0.034 3.203 0.015 43.988 41.550
-2.000 -20.791 -0.111 -20.837 -0.098 -20.833 -0.100 -20.825 -0.110 -20.763 -0.209 10.745 0.055 3.194 0.024 43.986 41.752
-1.600 -20.785 -0.108 -20.829 -0.098 -20.826 -0.100 -20.819 -0.110 -20.763 -0.209 10.750 0.079 3.183 0.034 43.984 41.901
-1.200 -20.780 -0.105 -20.822 -0.098 -20.819 -0.101 -20.811 -0.111 -20.762 -0.209 10.756 0.102 3.170 0.044 43.982 42.009
-0.800 -20.774 -0.102 -20.814 -0.100 -20.811 -0.102 -20.804 -0.112 -20.760 -0.209 10.765 0.124 3.156 0.054 43.979 42.090
-0.400 -20.767 -0.100 -20.805 -0.101 -20.802 -0.104 -20.796 -0.114 -20.758 -0.209 10.771 0.146 3.143 0.063 43.977 42.154
-0.000 -20.760 -0.098 -20.796 -0.102 -20.794 -0.105 -20.788 -0.115 -20.756 -0.210 10.774 0.166 3.131 0.072 43.974 42.205
0.400 -20.752 -0.097 -20.787 -0.104 -20.785 -0.107 -20.780 -0.117 -20.753 -0.210 10.770 0.185 3.121 0.080 43.970 42.245
0.800 -20.743 -0.095 -20.778 -0.106 -20.776 -0.109 -20.772 -0.118 -20.750 -0.211 10.757 0.202 3.115 0.088 43.966 42.278
1.200 -20.733 -0.095 -20.769 -0.107 -20.767 -0.111 -20.764 -0.120 -20.747 -0.212 10.732 0.218 3.113 0.095 43.962 42.303
1.600 -20.722 -0.095 -20.759 -0.109 -20.758 -0.112 -20.756 -0.121 -20.744 -0.213 10.693 0.233 3.117 0.103 43.957 42.323
2.000 -20.710 -0.096 -20.750 -0.110 -20.749 -0.114 -20.748 -0.123 -20.741 -0.213 10.649 0.246 3.122 0.109 43.951 42.339
2.400 -20.696 -0.097 -20.740 -0.112 -20.740 -0.115 -20.740 -0.124 -20.738 -0.214 10.567 0.256 3.144 0.116 43.944 42.345
2.800 -20.681 -0.099 -20.730 -0.113 -20.731 -0.117 -20.732 -0.126 -20.736 -0.215 10.483 0.264 3.167 0.123 43.936 42.349
3.200 -20.665 -0.100 -20.720 -0.114 -20.722 -0.118 -20.724 -0.127 -20.733 -0.216 10.414 0.273 3.184 0.129 43.929 42.354
3.600 -20.648 -0.102 -20.710 -0.116 -20.713 -0.119 -20.716 -0.128 -20.731 -0.217 10.322 0.279 3.211 0.135 43.921 42.352
4.000 -20.630 -0.104 -20.701 -0.117 -20.704 -0.121 -20.709 -0.130 -20.729 -0.219 10.172 0.280 3.268 0.141 43.911 42.337
4.400 -20.612 -0.106 -20.691 -0.119 -20.695 -0.122 -20.702 -0.131 -20.727 -0.220 10.089 0.285 3.294 0.147 43.904 42.333
4.800 -20.593 -0.108 -20.682 -0.120 -20.687 -0.123 -20.695 -0.132 -20.726 -0.221 9.934 0.283 3.359 0.153 43.894 42.313
5.200 -20.573 -0.110 -20.672 -0.122 -20.679 -0.125 -20.689 -0.134 -20.724 -0.222 9.845 0.285 3.389 0.158 43.886 42.304
5.600 -20.553 -0.112 -20.663 -0.123 -20.670 -0.127 -20.682 -0.136 -20.723 -0.224 9.731 0.286 3.436 0.164 43.878 42.290
6.000 -20.533 -0.114 -20.653 -0.125 -20.662 -0.129 -20.676 -0.138 -20.722 -0.225 9.554 0.280 3.523 0.170 43.867 42.261
6.400 -20.513 -0.116 -20.644 -0.126 -20.655 -0.130 -20.670 -0.140 -20.722 -0.226 9.426 0.278 3.584 0.177 43.859 42.242
6.800 -20.492 -0.119 -20.635 -0.128 -20.647 -0.132 -20.664 -0.141 -20.721 -0.227 9.336 0.280 3.624 0.183 43.852 42.232
7.200 -20.472 -0.123 -20.626 -0.129 -20.639 -0.133 -20.659 -0.143 -20.721 -0.229 9.221 0.280 3.682 0.190 43.844 42.218
7.600 -20.451 -0.127 -20.618 -0.131 -20.632 -0.135 -20.653 -0.144 -20.721 -0.230 9.099 0.280 3.747 0.198 43.836 42.203
8.000 -20.430 -0.131 -20.609 -0.132 -20.624 -0.136 -20.647 -0.145 -20.720 -0.231 8.926 0.276 3.855 0.207 43.827 42.178
8.400 -20.410 -0.136 -20.600 -0.133 -20.617 -0.137 -20.642 -0.146 -20.720 -0.231 8.805 0.278 3.928 0.216 43.820 42.165
8.800 -20.389 -0.142 -20.591 -0.134 -20.610 -0.137 -20.636 -0.147 -20.720 -0.232 8.721 0.282 3.975 0.226 43.814 42.160
9.200 -20.368 -0.147 -20.583 -0.134 -20.602 -0.138 -20.631 -0.147 -20.720 -0.233 8.615 0.285 4.042 0.236 43.807 42.150
9.600 -20.347 -0.153 -20.574 -0.135 -20.595 -0.138 -20.625 -0.147 -20.720 -0.233 8.457 0.282 4.159 0.249 43.800 42.127
10.000 -20.326 -0.159 -20.565 -0.135 -20.587 -0.138 -20.620 -0.146 -20.720 -0.234 8.378 0.287 4.209 0.259 43.794 42.121
10.400 -20.304 -0.165 -20.556 -0.134 -20.579 -0.137 -20.614 -0.146 -20.719 -0.234 8.236 0.285 4.321 0.272 43.787 42.099
10.800 -20.283 -0.171 -20.547 -0.134 -20.572 -0.136 -20.608 -0.145 -20.719 -0.234 8.162 0.289 4.372 0.283 43.781 42.092
11.200 -20.261 -0.176 -20.537 -0.134 -20.564 -0.135 -20.602 -0.143 -20.718 -0.234 8.024 0.287 4.490 0.297 43.775 42.068
11.600 -20.239 -0.182 -20.528 -0.133 -20.555 -0.134 -20.596 -0.142 -20.717 -0.234 7.922 0.288 4.576 0.310 43.769 42.051
12.000 -20.217 -0.187 -20.518 -0.132 -20.547 -0.133 -20.589 -0.141 -20.715 -0.234 7.823 0.288 4.663 0.322 43.764 42.033
12.400 -20.194 -0.192 -20.508 -0.132 -20.538 -0.132 -20.582 -0.139 -20.714 -0.234 7.727 0.288 4.750 0.335 43.758 42.015
12.800 -20.171 -0.197 -20.497 -0.131 -20.529 -0.131 -20.575 -0.138 -20.711 -0.234 7.633 0.287 4.837 0.348 43.753 41.998
13.200 -20.148 -0.202 -20.486 -0.130 -20.519 -0.130 -20.567 -0.137 -20.709 -0.234 7.542 0.287 4.924 0.361 43.747 41.982
13.600 -20.124 -0.206 -20.474 -0.130 -20.508 -0.129 -20.558 -0.136 -20.705 -0.234 7.455 0.287 5.008 0.375 43.742 41.968
14.000 -20.100 -0.210 -20.461 -0.130 -20.497 -0.129 -20.549 -0.135 -20.701 -0.234 7.404 0.290 5.047 0.386 43.737 41.963
14.400 -20.075 -0.214 -20.447 -0.130 -20.485 -0.129 -20.539 -0.135 -20.697 -0.234 7.340 0.293 5.103 0.401 43.731 41.958
14.800 -20.050 -0.217 -20.433 -0.130 -20.471 -0.129 -20.528 -0.135 -20.692 -0.235 7.219 0.292 5.239 0.423 43.725 41.952
15.200 -20.025 -0.220 -20.417 -0.131 -20.457 -0.129 -20.515 -0.135 -20.686 -0.235 7.150 0.296 5.305 0.442 43.719 41.956
15.600 -19.999 -0.223 -20.400 -0.132 -20.441 -0.130 -20.502 -0.136 -20.680 -0.236 7.084 0.302 5.366 0.464 43.713 41.965
16.000 -19.973 -0.225 -20.383 -0.132 -20.425 -0.131 -20.487 -0.136 -20.673 -0.237 7.022 0.308 5.421 0.486 43.707 41.978
16.400 -19.947 -0.228 -20.364 -0.133 -20.408 -0.132 -20.472 -0.137 -20.665 -0.237 6.963 0.315 5.472 0.509 43.700 41.993
16.800 -19.920 -0.229 -20.345 -0.134 -20.390 -0.133 -20.456 -0.138 -20.657 -0.238 6.909 0.322 5.515 0.533 43.694 42.010
17.200 -19.893 -0.231 -20.326 -0.135 -20.372 -0.134 -20.439 -0.139 -20.649 -0.239 6.856 0.329 5.557 0.558 43.687 42.028
17.600 -19.867 -0.232 -20.306 -0.136 -20.353 -0.134 -20.423 -0.140 -20.640 -0.240 6.805 0.337 5.595 0.582 43.680 42.046
18.000 -19.840 -0.233 -20.286 -0.137 -20.334 -0.135 -20.405 -0.141 -20.630 -0.241 6.757 0.344 5.630 0.606 43.673 42.064
18.400 -19.813 -0.234 -20.266 -0.137 -20.315 -0.135 -20.388 -0.142 -20.621 -0.242 6.711 0.351 5.662 0.630 43.666 42.082
18.800 -19.786 -0.234 -20.246 -0.137 -20.296 -0.136 -20.371 -0.142 -20.611 -0.243 6.667 0.357 5.692 0.653 43.659 42.098
19.200 -19.760 -0.234 -20.226 -0.137 -20.277 -0.136 -20.354 -0.143 -20.601 -0.244 6.625 0.362 5.720 0.674 43.652 42.114
19.600 -19.734 -0.234 -20.206 -0.137 -20.258 -0.136 -20.337 -0.143 -20.591 -0.245 6.584 0.366 5.746 0.694 43.646 42.129
20.000 -19.708 -0.233 -20.187 -0.137 -20.240 -0.136 -20.321 -0.143 -20.581 -0.245 6.545 0.370 5.773 0.712 43.639 42.143
20.400 -19.682 -0.233 -20.168 -0.136 -20.222 -0.136 -20.305 -0.143 -20.571 -0.246 6.507 0.372 5.799 0.728 43.633 42.155
20.800 -19.658 -0.232 -20.150 -0.136 -20.205 -0.136 -20.289 -0.143 -20.562 -0.247 6.470 0.373 5.825 0.741 43.627 42.166
21.200 -19.633 -0.231 -20.133 -0.136 -20.189 -0.135 -20.274 -0.143 -20.552 -0.247 6.435 0.373 5.851 0.752 43.621 42.176
21.600 -19.609 -0.230 -20.117 -0.135 -20.173 -0.135 -20.260 -0.143 -20.543 -0.248 6.400 0.371 5.877 0.761 43.616 42.184
22.000 -19.586 -0.229 -20.101 -0.135 -20.158 -0.135 -20.246 -0.143 -20.533 -0.248 6.367 0.369 5.904 0.769 43.611 42.191
22.400 -19.564 -0.228 -20.086 -0.134 -20.144 -0.134 -20.233 -0.143 -20.524 -0.249 6.335 0.367 5.930 0.775 43.606 42.197
22.800 -19.543 -0.226 -20.071 -0.133 -20.131 -0.133 -20.221 -0.142 -20.515 -0.249 6.305 0.364 5.956 0.780 43.601 42.202
23.200 -19.522 -0.225 -20.058 -0.132 -20.118 -0.132 -20.209 -0.142 -20.507 -0.249 6.276 0.361 5.981 0.784 43.597 42.206
23.600 -19.503 -0.225 -20.045 -0.131 -20.105 -0.131 -20.198 -0.141 -20.498 -0.249 6.248 0.358 6.004 0.787 43.593 42.209
24.000 -19.484 -0.224 -20.032 -0.129 -20.094 -0.130 -20.187 -0.140 -20.490 -0.250 6.223 0.356 6.027 0.790 43.589 42.212
24.400 -19.467 -0.223 -20.020 -0.128 -20.082 -0.128 -20.176 -0.138 -20.482 -0.250 6.198 0.353 6.047 0.794 43.585 42.214
24.800 -19.450 -0.223 -20.009 -0.126 -20.072 -0.127 -20.166 -0.137 -20.474 -0.250 6.176 0.352 6.066 0.797 43.581 42.215
25.200 -19.435 -0.224 -19.999 -0.124 -20.062 -0.125 -20.157 -0.135 -20.466 -0.250 6.156 0.350 6.082 0.802 43.578 42.215
25.600 -19.421 -0.225 -19.989 -0.123 -20.052 -0.123 -20.148 -0.134 -20.458 -0.250 6.137 0.350 6.095 0.807 43.575 42.216
26.000 -19.409 -0.227 -19.979 -0.121 -20.043 -0.121 -20.139 -0.132 -20.451 -0.250 6.121 0.351 6.105 0.813 43.571 42.216
26.400 -19.397 -0.229 -19.970 -0.120 -20.034 -0.120 -20.130 -0.131 -20.443 -0.250 6.106 0.352 6.112 0.819 43.568 42.217
26.800 -19.387 -0.231 -19.962 -0.119 -20.026 -0.119 -20.122 -0.130 -20.436 -0.251 6.094 0.353 6.116 0.826 43.565 42.217
27.200 -19.377 -0.234 -19.953 -0.118 -20.018 -0.118 -20.114 -0.129 -20.428 -0.251 6.083 0.355 6.117 0.833 43.562 42.218
27.600 -19.369 -0.238 -19.945 -0.118 -20.010 -0.117 -20.106 -0.129 -20.421 -0.252 6.074 0.358 6.115 0.840 43.560 42.218
28.000 -19.361 -0.242 -19.938 -0.118 -20.002 -0.118 -20.099 -0.129 -20.413 -0.253 6.067 0.360 6.110 0.845 43.557 42.218
28.400 -19.354 -0.247 -19.930 -0.120 -19.994 -0.119 -20.091 -0.129 -20.406 -0.254 6.062 0.362 6.101 0.850 43.554 42.218
28.800 -19.347 -0.251 -19.923 -0.122 -19.987 -0.120 -20.084 -0.131 -20.398 -0.256 6.058 0.364 6.088 0.854 43.551 42.218
29.200 -19.341 -0.257 -19.916 -0.125 -19.980 -0.123 -20.076 -0.133 -20.390 -0.258 6.057 0.366 6.071 0.856 43.549 42.217
29.600 -19.336 -0.262 -19.909 -0.129 -19.972 -0.127 -20.069 -0.137 -20.383 -0.261 6.059 0.368 6.050 0.856 43.546 42.216
30.000 -19.331 -0.268 -19.902 -0.134 -19.965 -0.132 -20.061 -0.141 -20.375 -0.263 6.062 0.369 6.024 0.855 43.543 42.215
30.400 -19.326 -0.275 -19.895 -0.140 -19.958 -0.138 -20.053 -0.147 -20.367 -0.267 6.068 0.370 5.993 0.852 43.540 42.214
30.800 -19.322 -0.281 -19.888 -0.148 -19.951 -0.146 -20.046 -0.154 -20.359 -0.271 6.075 0.371 5.960 0.848 43.538 42.213
31.200 -19.318 -0.288 -19.881 -0.156 -19.944 -0.154 -20.038 -0.162 -20.351 -0.275 6.084 0.372 5.924 0.843 43.535 42.212
31.600 -19.314 -0.295 -19.874 -0.166 -19.937 -0.164 -20.031 -0.171 -20.342 -0.280 6.094 0.373 5.887 0.837 43.532 42.210
32.000 -19.310 -0.302 -19.868 -0.176 -19.929 -0.174 -20.023 -0.180 -20.334 -0.286 6.105 0.373 5.847 0.830 43.529 42.209
32.400 -19.307 -0.310 -19.861 -0.186 -19.922 -0.184 -20.015 -0.190 -20.326 -0.291 6.117 0.374 5.806 0.823 43.527 42.207
32.800 -19.304 -0.318 -19.854 -0.197 -19.915 -0.195 -20.008 -0.201 -20.317 -0.297 6.129 0.374 5.764 0.815 43.524 42.205
33.200 -19.301 -0.326 -19.848 -0.208 -19.908 -0.207 -20.000 -0.212 -20.309 -0.304 6.143 0.374 5.721 0.806 43.521 42.202
33.600 -19.298 -0.334 -19.841 -0.220 -19.901 -0.218 -19.993 -0.223 -20.300 -0.311 6.157 0.374 5.678 0.798 43.518 42.199
34.000 -19.295 -0.342 -19.835 -0.231 -19.894 -0.230 -19.985 -0.234 -20.292 -0.318 6.171 0.375 5.633 0.789 43.516 42.196
34.400 -19.292 -0.350 -19.828 -0.243 -19.887 -0.241 -19.978 -0.245 -20.283 -0.325 6.186 0.375 5.588 0.780 43.513 42.192
34.800 -19.289 -0.358 -19.822 -0.254 -19.881 -0.252 -19.970 -0.256 -20.274 -0.332 6.201 0.375 5.543 0.771 43.510 42.188
35.200 -19.287 -0.366 -19.815 -0.265 -19.874 -0.264 -19.963 -0.267 -20.266 -0.340 6.216 0.375 5.497 0.762 43.507 42.184
35.600 -19.284 -0.374 -19.809 -0.277 -19.867 -0.275 -19.956 -0.278 -20.257 -0.347 6.232 0.375 5.452 0.753 43.504 42.179
36.000 -19.282 -0.382 -19.803 -0.288 -19.860 -0.286 -19.948 -0.289 -20.249 -0.354 6.248 0.376 5.406 0.744 43.502 42.174
36.400 -19.280 -0.390 -19.797 -0.298 -19.854 -0.297 -19.941 -0.299 -20.240 -0.362 6.265 0.376 5.361 0.735 43.499 42.169
36.800 -19.277 -0.397 -19.791 -0.309 -19.847 -0.307 -19.934 -0.310 -20.231 -0.369 6.281 0.376 5.316 0.726 43.496 42.164
37.200 -19.275 -0.405 -19.785 -0.319 -19.841 -0.317 -19.927 -0.319 -20.223 -0.376 6.297 0.377 5.271 0.717 43.493 42.158
37.600 -19.273 -0.412 -19.779 -0.329 -19.834 -0.327 -19.920 -0.329 -20.214 -0.383 6.314 0.377 5.226 0.709 43.490 42.153
38.000 -19.270 -0.419 -19.773 -0.338 -19.828 -0.336 -19.913 -0.338 -20.206 -0.390 6.331 0.377 5.182 0.700 43.488 42.147
38.400 -19.268 -0.426 -19.767 -0.347 -19.822 -0.346 -19.906 -0.347 -20.197 -0.396 6.347 0.378 5.139 0.692 43.485 42.141
38.800 -19.266 -0.432 -19.761 -0.356 -19.816 -0.354 -19.899 -0.356 -20.189 -0.402 6.364 0.378 5.096 0.684 43.482 42.135
39.200 -19.264 -0.439 -19.755 -0.364 -19.809 -0.362 -19.892 -0.364 -20.181 -0.408 6.380 0.379 5.053 0.676 43.479 42.129
39.600 -19.261 -0.444 -19.749 -0.371 -19.803 -0.370 -19.886 -0.371 -20.172 -0.413 6.397 0.379 5.012 0.668 43.477 42.123
40.000 -19.259 -0.450 -19.744 -0.379 -19.797 -0.377 -19.879 -0.378 -20.164 -0.419 6.413 0.380 4.970 0.661 43.474 42.117
40.400 -19.257 -0.455 -19.738 -0.385 -19.791 -0.384 -19.872 -0.385 -20.156 -0.423 6.429 0.381 4.930 0.654 43.471 42.111
40.800 -19.255 -0.460 -19.732 -0.392 -19.785 -0.390 -19.866 -0.391 -20.147 -0.428 6.446 0.381 4.890 0.646 43.469 42.105
41.200 -19.252 -0.464 -19.727 -0.397 -19.779 -0.396 -19.859 -0.397 -20.139 -0.432 6.462 0.382 4.851 0.639 43.466 42.099
41.600 -19.250 -0.468 -19.721 -0.403 -19.773 -0.401 -19.853 -0.402 -20.131 -0.435 6.478 0.383 4.813 0.632 43.463 42.092
42.000 -19.248 -0.472 -19.716 -0.407 -19.767 -0.406 -19.846 -0.406 -20.123 -0.438 6.493 0.383 4.775 0.626 43.461 42.086
42.400 -19.245 -0.475 -19.710 -0.411 -19.761 -0.410 -19.840 -0.410 -20.115 -0.441 6.509 0.384 4.738 0.619 43.458 42.080
42.800 -19.243 -0.477 -19.705 -0.415 -19.756 -0.413 -19.834 -0.414 -20.107 -0.443 6.524 0.385 4.702 0.613 43.455 42.074
43.200 -19.241 -0.480 -19.699 -0.418 -19.750 -0.416 -19.827 -0.416 -20.099 -0.444 6.539 0.386 4.666 0.607 43.453 42.068
43.600 -19.238 -0.481 -19.694 -0.420 -19.744 -0.419 -19.821 -0.419 -20.092 -0.446 6.554 0.386 4.631 0.601 43.450 42.062
44.000 -19.236 -0.483 -19.689 -0.422 -19.738 -0.421 -19.815 -0.420 -20.084 -0.446 6.569 0.387 4.597 0.595 43.448 42.056
44.400 -19.233 -0.483 -19.683 -0.423 -19.733 -0.422 -19.809 -0.422 -20.076 -0.446 6.584 0.388 4.564 0.590 43.445 42.050
44.800 -19.231 -0.484 -19.678 -0.424 -19.727 -0.422 -19.802 -0.422 -20.068 -0.446 6.598 0.389 4.531 0.584 43.443 42.044
45.200 -19.228 -0.483 -19.672 -0.424 -19.721 -0.423 -19.796 -0.422 -20.061 -0.445 6.611 0.390 4.499 0.579 43.440 42.038
