"Time (MJD)" B-4369.53 B-4369.53_err V-5467.57 V-5467.57_err g-4671.78 g-4671.78_err i-7457.89 i-7457.89_err r-6141.12 r-6141.12_err "Temp./1e3 (K)" "Temp. Err." "Radius/1e15 (cm)" "Radius Err." "Log10(Bol. Lum)" "Log10(Bol. Err)"
-20.000 -18.975 -0.163 -18.843 -0.142 -18.287 -0.130 -17.830 -0.100 -17.917 -0.201 40.000 88.123 0.276 0.417 44.143 44.906
-19.600 -19.166 -0.149 -19.043 -0.130 -18.484 -0.122 -18.019 -0.092 -18.086 -0.187 40.000 131.626 0.276 0.623 44.143 45.081
-19.200 -19.357 -0.137 -19.244 -0.120 -18.681 -0.116 -18.213 -0.090 -18.255 -0.175 40.000 86.504 0.331 0.491 44.300 45.055
-18.800 -19.548 -0.127 -19.445 -0.113 -18.877 -0.113 -18.410 -0.091 -18.425 -0.166 40.000 130.145 0.331 0.740 44.300 45.232
-18.400 -19.736 -0.118 -19.644 -0.106 -19.070 -0.109 -18.606 -0.095 -18.594 -0.157 40.000 78.264 0.403 0.543 44.471 45.181
-18.000 -19.920 -0.109 -19.839 -0.100 -19.259 -0.106 -18.802 -0.099 -18.762 -0.149 40.000 116.898 0.403 0.813 44.471 45.355
-17.600 -20.099 -0.100 -20.029 -0.092 -19.441 -0.103 -18.993 -0.102 -18.927 -0.141 40.000 68.954 0.488 0.583 44.638 45.292
-17.200 -20.269 -0.090 -20.211 -0.084 -19.616 -0.098 -19.179 -0.103 -19.089 -0.132 40.000 64.667 0.535 0.601 44.717 45.343
-16.800 -20.430 -0.079 -20.382 -0.074 -19.780 -0.091 -19.358 -0.104 -19.246 -0.122 40.000 60.605 0.584 0.618 44.794 45.390
-16.400 -20.578 -0.066 -20.542 -0.062 -19.932 -0.083 -19.529 -0.103 -19.397 -0.111 40.000 56.658 0.635 0.632 44.867 45.433
-16.000 -20.714 -0.052 -20.688 -0.049 -20.072 -0.074 -19.689 -0.100 -19.542 -0.098 40.000 52.764 0.689 0.643 44.937 45.470
-15.600 -20.835 -0.038 -20.817 -0.036 -20.197 -0.063 -19.838 -0.097 -19.679 -0.084 40.000 49.069 0.743 0.651 45.003 45.503
-15.200 -20.939 -0.027 -20.928 -0.024 -20.308 -0.051 -19.976 -0.093 -19.808 -0.069 40.000 46.169 0.794 0.661 45.061 45.532
-14.800 -21.028 -0.024 -21.018 -0.022 -20.404 -0.038 -20.101 -0.090 -19.927 -0.054 40.000 43.930 0.825 0.651 45.094 45.544
-14.400 -21.101 -0.031 -21.087 -0.030 -20.485 -0.026 -20.213 -0.087 -20.036 -0.040 40.000 42.005 0.825 0.608 45.094 45.530
-14.000 -21.161 -0.041 -21.140 -0.040 -20.552 -0.019 -20.311 -0.087 -20.133 -0.033 40.000 40.092 0.831 0.576 45.100 45.519
-13.600 -21.209 -0.049 -21.180 -0.049 -20.607 -0.020 -20.397 -0.087 -20.218 -0.036 40.000 40.565 0.849 0.595 45.119 45.543
-13.200 -21.248 -0.056 -21.211 -0.057 -20.651 -0.023 -20.472 -0.089 -20.293 -0.047 40.000 43.226 0.866 0.648 45.136 45.587
-12.800 -21.282 -0.063 -21.236 -0.063 -20.689 -0.023 -20.538 -0.090 -20.357 -0.058 40.000 46.846 0.877 0.713 45.147 45.633
-12.400 -21.313 -0.068 -21.257 -0.069 -20.721 -0.022 -20.596 -0.091 -20.413 -0.070 40.000 52.517 0.877 0.800 45.147 45.682
-12.000 -21.342 -0.073 -21.277 -0.073 -20.752 -0.024 -20.647 -0.092 -20.462 -0.079 40.000 50.869 0.899 0.795 45.169 45.690
-11.600 -21.369 -0.076 -21.297 -0.076 -20.784 -0.031 -20.693 -0.092 -20.504 -0.087 40.000 47.811 0.919 0.765 45.188 45.682
-11.200 -21.395 -0.077 -21.316 -0.077 -20.816 -0.039 -20.734 -0.091 -20.540 -0.093 40.000 50.071 0.919 0.803 45.188 45.702
-10.800 -21.419 -0.077 -21.337 -0.076 -20.847 -0.046 -20.771 -0.089 -20.571 -0.096 40.000 39.445 0.961 0.663 45.227 45.636
-10.400 -21.443 -0.073 -21.357 -0.073 -20.878 -0.051 -20.806 -0.087 -20.597 -0.098 40.000 39.909 0.961 0.672 45.227 45.640
-10.000 -21.465 -0.068 -21.378 -0.069 -20.907 -0.052 -20.837 -0.085 -20.619 -0.097 40.000 33.372 0.994 0.583 45.256 45.592
-9.600 -21.486 -0.062 -21.399 -0.062 -20.934 -0.050 -20.865 -0.083 -20.637 -0.095 40.000 33.763 0.994 0.592 45.256 45.596
-9.200 -21.505 -0.054 -21.419 -0.054 -20.961 -0.045 -20.891 -0.080 -20.652 -0.091 40.000 30.627 1.018 0.551 45.277 45.574
-8.800 -21.521 -0.048 -21.439 -0.045 -20.985 -0.037 -20.916 -0.077 -20.665 -0.087 40.000 32.050 1.018 0.578 45.277 45.593
-8.400 -21.535 -0.044 -21.456 -0.037 -21.009 -0.027 -20.938 -0.074 -20.676 -0.082 40.000 35.112 1.018 0.631 45.277 45.633
-8.000 -21.547 -0.045 -21.470 -0.032 -21.032 -0.018 -20.959 -0.070 -20.687 -0.077 40.000 36.504 1.025 0.657 45.283 45.658
-7.600 -21.555 -0.048 -21.480 -0.034 -21.054 -0.020 -20.978 -0.068 -20.696 -0.071 40.000 33.044 1.036 0.601 45.292 45.624
-7.200 -21.559 -0.052 -21.486 -0.040 -21.076 -0.030 -20.996 -0.069 -20.705 -0.065 40.000 25.469 1.056 0.473 45.308 45.526
-6.800 -21.561 -0.056 -21.489 -0.047 -21.097 -0.041 -21.011 -0.071 -20.714 -0.058 40.000 22.450 1.056 0.416 45.308 45.472
-6.400 -21.562 -0.058 -21.491 -0.053 -21.117 -0.050 -21.025 -0.074 -20.724 -0.052 37.903 14.544 1.122 0.306 45.267 45.263
-6.000 -21.560 -0.059 -21.492 -0.057 -21.135 -0.055 -21.038 -0.077 -20.734 -0.047 28.004 5.403 1.417 0.215 44.944 44.616
-5.600 -21.559 -0.061 -21.492 -0.060 -21.152 -0.058 -21.049 -0.080 -20.745 -0.045 26.813 4.210 1.473 0.185 44.903 44.481
-5.200 -21.558 -0.063 -21.493 -0.061 -21.167 -0.058 -21.060 -0.082 -20.757 -0.046 25.890 3.603 1.521 0.172 44.869 44.391
-4.800 -21.557 -0.066 -21.494 -0.061 -21.180 -0.054 -21.071 -0.084 -20.770 -0.047 25.031 3.248 1.568 0.168 44.837 44.324
-4.400 -21.557 -0.070 -21.495 -0.060 -21.193 -0.050 -21.080 -0.087 -20.784 -0.047 24.161 2.985 1.619 0.167 44.804 44.265
-4.000 -21.556 -0.074 -21.496 -0.060 -21.204 -0.045 -21.089 -0.091 -20.797 -0.044 23.257 2.691 1.676 0.164 44.767 44.196
-3.600 -21.555 -0.079 -21.497 -0.062 -21.216 -0.045 -21.097 -0.097 -20.809 -0.042 22.418 2.279 1.735 0.151 44.734 44.103
-3.200 -21.554 -0.086 -21.497 -0.068 -21.226 -0.052 -21.104 -0.104 -20.820 -0.043 21.844 1.831 1.783 0.129 44.712 43.996
-2.800 -21.552 -0.095 -21.497 -0.077 -21.237 -0.064 -21.111 -0.114 -20.830 -0.050 21.512 1.503 1.814 0.110 44.701 43.902
-2.400 -21.549 -0.105 -21.497 -0.087 -21.247 -0.078 -21.117 -0.124 -20.839 -0.063 21.246 1.257 1.839 0.096 44.691 43.815
-2.000 -21.547 -0.116 -21.496 -0.099 -21.257 -0.094 -21.123 -0.135 -20.846 -0.079 20.973 1.048 1.864 0.084 44.680 43.726
-1.600 -21.543 -0.127 -21.495 -0.111 -21.265 -0.109 -21.129 -0.146 -20.852 -0.097 20.688 0.866 1.890 0.072 44.669 43.632
-1.200 -21.540 -0.137 -21.494 -0.122 -21.273 -0.123 -21.133 -0.156 -20.857 -0.116 20.399 0.714 1.917 0.062 44.657 43.538
-0.800 -21.536 -0.146 -21.492 -0.132 -21.280 -0.136 -21.138 -0.167 -20.861 -0.134 20.111 0.601 1.944 0.054 44.644 43.452
-0.400 -21.531 -0.154 -21.490 -0.141 -21.286 -0.149 -21.141 -0.176 -20.864 -0.152 19.827 0.533 1.971 0.050 44.631 43.389
-0.000 -21.526 -0.160 -21.487 -0.148 -21.291 -0.159 -21.144 -0.185 -20.866 -0.170 19.548 0.512 1.998 0.050 44.618 43.360
0.400 -21.520 -0.165 -21.484 -0.154 -21.295 -0.169 -21.147 -0.193 -20.867 -0.186 19.288 0.532 2.023 0.054 44.606 43.365
0.800 -21.514 -0.168 -21.481 -0.158 -21.298 -0.176 -21.149 -0.199 -20.867 -0.201 19.031 0.575 2.049 0.061 44.594 43.388
1.200 -21.507 -0.169 -21.477 -0.161 -21.300 -0.182 -21.150 -0.205 -20.867 -0.216 18.718 0.624 2.080 0.069 44.578 43.410
1.600 -21.499 -0.168 -21.472 -0.161 -21.302 -0.186 -21.150 -0.208 -20.866 -0.229 18.496 0.683 2.102 0.078 44.566 43.438
2.000 -21.491 -0.166 -21.466 -0.160 -21.302 -0.189 -21.150 -0.210 -20.865 -0.240 18.236 0.736 2.128 0.087 44.553 43.457
2.400 -21.482 -0.161 -21.459 -0.156 -21.300 -0.189 -21.149 -0.211 -20.863 -0.250 17.961 0.781 2.156 0.096 44.538 43.469
2.800 -21.471 -0.155 -21.452 -0.152 -21.298 -0.188 -21.147 -0.209 -20.861 -0.259 17.675 0.819 2.187 0.106 44.522 43.474
3.200 -21.460 -0.148 -21.444 -0.145 -21.295 -0.186 -21.145 -0.207 -20.859 -0.266 17.196 0.820 2.244 0.114 44.496 43.452
3.600 -21.448 -0.139 -21.434 -0.138 -21.291 -0.182 -21.142 -0.202 -20.856 -0.272 16.847 0.832 2.285 0.122 44.477 43.439
4.000 -21.434 -0.129 -21.423 -0.129 -21.286 -0.176 -21.139 -0.196 -20.854 -0.276 16.478 0.835 2.331 0.130 44.456 43.419
4.400 -21.420 -0.118 -21.411 -0.121 -21.281 -0.168 -21.135 -0.187 -20.851 -0.279 16.090 0.827 2.383 0.138 44.433 43.392
4.800 -21.403 -0.108 -21.398 -0.112 -21.274 -0.160 -21.131 -0.178 -20.848 -0.281 15.684 0.810 2.440 0.145 44.409 43.358
5.200 -21.386 -0.098 -21.384 -0.103 -21.267 -0.150 -21.127 -0.166 -20.845 -0.281 15.262 0.783 2.504 0.151 44.384 43.317
5.600 -21.367 -0.089 -21.368 -0.096 -21.259 -0.139 -21.123 -0.153 -20.843 -0.280 14.829 0.746 2.574 0.156 44.359 43.269
6.000 -21.347 -0.082 -21.350 -0.090 -21.251 -0.126 -21.118 -0.139 -20.840 -0.277 14.394 0.702 2.651 0.159 44.332 43.216
6.400 -21.325 -0.076 -21.332 -0.086 -21.242 -0.113 -21.114 -0.123 -20.838 -0.273 13.960 0.653 2.734 0.160 44.306 43.158
6.800 -21.303 -0.071 -21.313 -0.082 -21.234 -0.098 -21.110 -0.106 -20.836 -0.268 13.533 0.603 2.823 0.161 44.280 43.099
7.200 -21.281 -0.065 -21.294 -0.079 -21.225 -0.083 -21.107 -0.088 -20.834 -0.262 13.319 0.587 2.862 0.162 44.264 43.075
7.600 -21.259 -0.059 -21.275 -0.076 -21.217 -0.067 -21.104 -0.069 -20.833 -0.255 12.726 0.507 3.018 0.158 44.231 42.983
8.000 -21.237 -0.053 -21.257 -0.073 -21.210 -0.051 -21.102 -0.051 -20.832 -0.246 12.376 0.469 3.114 0.155 44.210 42.939
8.400 -21.217 -0.048 -21.240 -0.071 -21.203 -0.038 -21.101 -0.034 -20.831 -0.237 12.100 0.450 3.194 0.155 44.193 42.920
8.800 -21.199 -0.047 -21.224 -0.071 -21.197 -0.032 -21.100 -0.026 -20.831 -0.226 11.880 0.446 3.261 0.158 44.179 42.914
9.200 -21.182 -0.051 -21.210 -0.072 -21.192 -0.037 -21.101 -0.032 -20.831 -0.215 11.619 0.442 3.350 0.169 44.164 42.884
9.600 -21.168 -0.058 -21.198 -0.074 -21.188 -0.047 -21.102 -0.044 -20.831 -0.202 11.424 0.466 3.418 0.191 44.152 42.879
10.000 -21.156 -0.065 -21.188 -0.076 -21.186 -0.056 -21.105 -0.055 -20.832 -0.188 11.313 0.515 3.454 0.220 44.144 42.904
10.400 -21.145 -0.071 -21.180 -0.078 -21.184 -0.064 -21.108 -0.064 -20.833 -0.174 11.266 0.572 3.465 0.248 44.139 42.941
10.800 -21.137 -0.076 -21.173 -0.078 -21.182 -0.069 -21.112 -0.070 -20.835 -0.158 11.236 0.626 3.471 0.273 44.136 42.975
11.200 -21.129 -0.078 -21.168 -0.077 -21.182 -0.071 -21.115 -0.072 -20.837 -0.142 11.229 0.674 3.468 0.294 44.134 43.008
11.600 -21.123 -0.078 -21.165 -0.073 -21.182 -0.070 -21.120 -0.072 -20.839 -0.125 11.241 0.717 3.458 0.311 44.134 43.038
12.000 -21.119 -0.075 -21.163 -0.067 -21.183 -0.066 -21.124 -0.068 -20.842 -0.107 11.267 0.755 3.444 0.323 44.134 43.065
12.400 -21.116 -0.071 -21.162 -0.059 -21.184 -0.059 -21.127 -0.061 -20.845 -0.089 11.306 0.787 3.427 0.332 44.136 43.091
12.800 -21.113 -0.065 -21.162 -0.049 -21.186 -0.050 -21.131 -0.052 -20.848 -0.071 11.359 0.815 3.406 0.336 44.139 43.114
13.200 -21.111 -0.059 -21.164 -0.037 -21.187 -0.040 -21.133 -0.041 -20.852 -0.055 11.426 0.834 3.383 0.336 44.143 43.134
13.600 -21.110 -0.055 -21.167 -0.027 -21.188 -0.031 -21.135 -0.032 -20.856 -0.042 11.492 0.831 3.362 0.329 44.148 43.140
14.000 -21.109 -0.053 -21.171 -0.024 -21.189 -0.029 -21.135 -0.030 -20.861 -0.037 11.565 0.816 3.335 0.317 44.152 43.137
14.400 -21.108 -0.055 -21.176 -0.031 -21.189 -0.034 -21.133 -0.038 -20.866 -0.041 11.613 0.803 3.314 0.307 44.153 43.137
14.800 -21.106 -0.058 -21.182 -0.040 -21.188 -0.042 -21.131 -0.050 -20.871 -0.048 11.588 0.774 3.319 0.298 44.151 43.118
15.200 -21.104 -0.061 -21.188 -0.047 -21.187 -0.048 -21.128 -0.063 -20.876 -0.054 11.547 0.745 3.332 0.291 44.148 43.095
15.600 -21.101 -0.062 -21.194 -0.051 -21.185 -0.051 -21.123 -0.075 -20.882 -0.057 11.509 0.723 3.345 0.286 44.146 43.077
16.000 -21.098 -0.061 -21.199 -0.051 -21.182 -0.051 -21.119 -0.086 -20.887 -0.057 11.473 0.712 3.357 0.286 44.144 43.065
16.400 -21.093 -0.057 -21.204 -0.048 -21.178 -0.048 -21.114 -0.095 -20.891 -0.054 11.436 0.713 3.371 0.290 44.141 43.060
16.800 -21.086 -0.051 -21.206 -0.042 -21.174 -0.041 -21.109 -0.104 -20.896 -0.048 11.399 0.726 3.385 0.298 44.140 43.062
17.200 -21.078 -0.046 -21.207 -0.034 -21.169 -0.032 -21.104 -0.112 -20.899 -0.042 11.370 0.747 3.400 0.310 44.139 43.069
17.600 -21.069 -0.043 -21.203 -0.028 -21.164 -0.026 -21.099 -0.120 -20.902 -0.039 11.328 0.760 3.418 0.320 44.137 43.070
18.000 -21.058 -0.049 -21.195 -0.034 -21.159 -0.033 -21.095 -0.128 -20.904 -0.045 11.184 0.736 3.468 0.323 44.127 43.044
18.400 -21.047 -0.061 -21.182 -0.048 -21.155 -0.048 -21.090 -0.137 -20.905 -0.059 10.988 0.688 3.536 0.317 44.113 42.999
18.800 -21.034 -0.078 -21.166 -0.065 -21.150 -0.066 -21.086 -0.147 -20.905 -0.077 10.804 0.640 3.603 0.309 44.101 42.953
19.200 -21.019 -0.096 -21.147 -0.084 -21.145 -0.086 -21.083 -0.157 -20.905 -0.096 10.628 0.598 3.671 0.303 44.088 42.910
19.600 -21.002 -0.116 -21.127 -0.104 -21.139 -0.106 -21.079 -0.169 -20.904 -0.116 10.456 0.564 3.740 0.299 44.076 42.870
20.000 -20.983 -0.135 -21.106 -0.123 -21.132 -0.125 -21.075 -0.180 -20.902 -0.136 10.285 0.535 3.812 0.297 44.064 42.833
20.400 -20.963 -0.154 -21.084 -0.142 -21.123 -0.144 -21.071 -0.192 -20.900 -0.155 10.115 0.512 3.885 0.298 44.052 42.798
20.800 -20.942 -0.173 -21.061 -0.161 -21.114 -0.162 -21.067 -0.205 -20.897 -0.174 9.948 0.493 3.960 0.301 44.039 42.765
21.200 -20.920 -0.190 -21.038 -0.178 -21.103 -0.180 -21.062 -0.217 -20.894 -0.192 9.785 0.477 4.037 0.306 44.027 42.734
21.600 -20.897 -0.207 -21.014 -0.195 -21.092 -0.196 -21.057 -0.228 -20.890 -0.209 9.626 0.463 4.113 0.311 44.015 42.704
22.000 -20.873 -0.223 -20.989 -0.211 -21.079 -0.212 -21.051 -0.239 -20.886 -0.224 9.474 0.451 4.189 0.318 44.003 42.675
22.400 -20.849 -0.237 -20.965 -0.225 -21.066 -0.226 -21.045 -0.250 -20.881 -0.239 9.327 0.441 4.265 0.325 43.992 42.647
22.800 -20.825 -0.250 -20.940 -0.238 -21.052 -0.238 -21.038 -0.259 -20.877 -0.252 9.186 0.431 4.340 0.332 43.980 42.619
23.200 -20.800 -0.262 -20.916 -0.250 -21.037 -0.250 -21.031 -0.268 -20.871 -0.263 9.051 0.421 4.413 0.339 43.969 42.592
23.600 -20.775 -0.272 -20.891 -0.260 -21.022 -0.260 -21.023 -0.275 -20.866 -0.273 8.955 0.415 4.458 0.345 43.959 42.571
24.000 -20.750 -0.280 -20.866 -0.269 -21.006 -0.268 -21.015 -0.282 -20.860 -0.282 8.802 0.402 4.554 0.352 43.948 42.539
24.400 -20.725 -0.287 -20.842 -0.276 -20.989 -0.275 -21.006 -0.287 -20.854 -0.289 8.687 0.393 4.621 0.358 43.938 42.513
24.800 -20.700 -0.292 -20.818 -0.281 -20.972 -0.280 -20.997 -0.290 -20.847 -0.294 8.578 0.384 4.685 0.363 43.928 42.487
25.200 -20.675 -0.296 -20.793 -0.285 -20.955 -0.283 -20.987 -0.292 -20.841 -0.297 8.475 0.375 4.747 0.367 43.918 42.462
25.600 -20.650 -0.298 -20.770 -0.287 -20.937 -0.285 -20.977 -0.293 -20.834 -0.299 8.378 0.366 4.805 0.370 43.909 42.437
26.000 -20.626 -0.298 -20.746 -0.287 -20.919 -0.285 -20.966 -0.292 -20.826 -0.299 8.287 0.357 4.860 0.373 43.900 42.412
26.400 -20.602 -0.296 -20.723 -0.285 -20.901 -0.283 -20.956 -0.289 -20.819 -0.298 8.202 0.348 4.911 0.374 43.891 42.388
26.800 -20.579 -0.293 -20.701 -0.282 -20.882 -0.280 -20.945 -0.285 -20.811 -0.295 8.139 0.341 4.941 0.375 43.883 42.368
27.200 -20.556 -0.287 -20.679 -0.277 -20.863 -0.275 -20.933 -0.279 -20.803 -0.290 8.049 0.331 5.002 0.375 43.874 42.343
27.600 -20.533 -0.280 -20.658 -0.270 -20.844 -0.268 -20.922 -0.272 -20.795 -0.283 7.981 0.322 5.041 0.375 43.866 42.321
28.000 -20.511 -0.272 -20.637 -0.262 -20.825 -0.260 -20.910 -0.263 -20.786 -0.275 7.931 0.316 5.061 0.373 43.859 42.302
28.400 -20.490 -0.261 -20.618 -0.252 -20.805 -0.250 -20.898 -0.253 -20.777 -0.266 7.863 0.307 5.103 0.372 43.851 42.280
28.800 -20.469 -0.249 -20.599 -0.240 -20.786 -0.238 -20.887 -0.241 -20.768 -0.255 7.820 0.301 5.117 0.370 43.844 42.263
29.200 -20.450 -0.236 -20.581 -0.227 -20.766 -0.225 -20.875 -0.228 -20.758 -0.243 7.776 0.296 5.134 0.368 43.837 42.246
29.600 -20.431 -0.221 -20.564 -0.212 -20.745 -0.211 -20.864 -0.213 -20.748 -0.229 7.735 0.291 5.148 0.368 43.830 42.231
30.000 -20.412 -0.205 -20.548 -0.196 -20.725 -0.195 -20.852 -0.197 -20.738 -0.214 7.698 0.289 5.158 0.369 43.823 42.219
30.400 -20.395 -0.187 -20.534 -0.179 -20.704 -0.178 -20.841 -0.180 -20.727 -0.199 7.662 0.288 5.170 0.373 43.817 42.209
30.800 -20.378 -0.168 -20.520 -0.160 -20.683 -0.159 -20.830 -0.161 -20.716 -0.182 7.635 0.291 5.171 0.379 43.811 42.204
31.200 -20.362 -0.148 -20.508 -0.141 -20.662 -0.140 -20.819 -0.141 -20.704 -0.166 7.610 0.298 5.170 0.391 43.805 42.204
31.600 -20.346 -0.128 -20.497 -0.121 -20.641 -0.119 -20.809 -0.120 -20.692 -0.149 7.585 0.309 5.172 0.410 43.800 42.208
32.000 -20.331 -0.106 -20.488 -0.101 -20.621 -0.098 -20.799 -0.098 -20.680 -0.132 7.554 0.326 5.183 0.438 43.795 42.216
32.400 -20.316 -0.085 -20.479 -0.081 -20.601 -0.076 -20.788 -0.076 -20.667 -0.116 7.516 0.350 5.206 0.477 43.790 42.229
32.800 -20.301 -0.066 -20.470 -0.063 -20.582 -0.054 -20.778 -0.053 -20.654 -0.102 7.448 0.381 5.276 0.535 43.785 42.244
33.200 -20.286 -0.049 -20.461 -0.049 -20.565 -0.034 -20.767 -0.030 -20.641 -0.091 7.266 0.420 5.522 0.633 43.782 42.258
33.600 -20.272 -0.042 -20.450 -0.044 -20.551 -0.023 -20.755 -0.016 -20.627 -0.084 7.034 0.448 5.878 0.734 43.780 42.240
34.000 -20.259 -0.048 -20.436 -0.050 -20.541 -0.034 -20.742 -0.029 -20.614 -0.081 7.282 0.420 5.435 0.618 43.772 42.258
34.400 -20.247 -0.061 -20.422 -0.062 -20.534 -0.052 -20.727 -0.049 -20.600 -0.081 7.480 0.383 5.104 0.511 43.764 42.248
34.800 -20.234 -0.076 -20.407 -0.075 -20.528 -0.070 -20.711 -0.068 -20.586 -0.081 7.596 0.352 4.913 0.438 43.758 42.236
35.200 -20.221 -0.089 -20.391 -0.087 -20.523 -0.086 -20.695 -0.085 -20.572 -0.082 7.671 0.328 4.784 0.386 43.752 42.227
35.600 -20.207 -0.101 -20.376 -0.097 -20.517 -0.100 -20.679 -0.100 -20.558 -0.080 7.726 0.308 4.684 0.346 43.746 42.220
36.000 -20.193 -0.110 -20.361 -0.104 -20.511 -0.112 -20.663 -0.112 -20.544 -0.076 7.770 0.292 4.600 0.313 43.740 42.217
36.400 -20.178 -0.117 -20.346 -0.110 -20.503 -0.121 -20.646 -0.122 -20.530 -0.070 7.807 0.276 4.525 0.284 43.734 42.215
36.800 -20.162 -0.122 -20.331 -0.113 -20.493 -0.128 -20.629 -0.129 -20.515 -0.061 7.837 0.261 4.457 0.254 43.728 42.213
37.200 -20.144 -0.124 -20.315 -0.113 -20.482 -0.133 -20.612 -0.134 -20.501 -0.049 7.859 0.243 4.399 0.224 43.721 42.209
37.600 -20.125 -0.124 -20.298 -0.111 -20.468 -0.135 -20.595 -0.137 -20.487 -0.036 7.868 0.224 4.352 0.194 43.714 42.201
38.000 -20.105 -0.123 -20.280 -0.108 -20.452 -0.135 -20.578 -0.137 -20.473 -0.021 7.860 0.207 4.324 0.168 43.706 42.187
38.400 -20.082 -0.120 -20.260 -0.102 -20.433 -0.134 -20.560 -0.135 -20.460 -0.014 7.828 0.196 4.319 0.156 43.698 42.165
38.800 -20.057 -0.115 -20.237 -0.096 -20.412 -0.130 -20.542 -0.130 -20.447 -0.024 7.767 0.196 4.345 0.167 43.690 42.135
39.200 -20.029 -0.110 -20.213 -0.089 -20.388 -0.125 -20.524 -0.124 -20.435 -0.037 7.696 0.204 4.384 0.191 43.682 42.103
39.600 -19.998 -0.104 -20.185 -0.082 -20.362 -0.119 -20.507 -0.116 -20.423 -0.048 7.577 0.213 4.472 0.222 43.672 42.067
40.000 -19.964 -0.098 -20.154 -0.076 -20.333 -0.111 -20.489 -0.106 -20.412 -0.056 7.457 0.221 4.567 0.252 43.662 42.040
40.400 -19.928 -0.092 -20.120 -0.072 -20.303 -0.101 -20.471 -0.095 -20.401 -0.061 7.324 0.227 4.681 0.281 43.652 42.023
40.800 -19.890 -0.085 -20.084 -0.067 -20.271 -0.091 -20.454 -0.082 -20.391 -0.063 7.187 0.233 4.807 0.311 43.643 42.018
41.200 -19.851 -0.077 -20.048 -0.061 -20.238 -0.079 -20.438 -0.070 -20.382 -0.062 7.050 0.239 4.943 0.342 43.633 42.024
41.600 -19.811 -0.068 -20.011 -0.054 -20.205 -0.066 -20.423 -0.059 -20.374 -0.057 6.919 0.245 5.077 0.373 43.624 42.034
42.000 -19.771 -0.058 -19.975 -0.045 -20.172 -0.052 -20.408 -0.052 -20.367 -0.051 6.809 0.244 5.186 0.395 43.615 42.039
42.400 -19.732 -0.049 -19.941 -0.036 -20.141 -0.039 -20.394 -0.050 -20.361 -0.043 6.734 0.232 5.235 0.390 43.604 42.020
42.800 -19.695 -0.042 -19.909 -0.028 -20.113 -0.028 -20.382 -0.054 -20.356 -0.037 6.682 0.215 5.247 0.371 43.592 41.981
43.200 -19.661 -0.040 -19.879 -0.027 -20.088 -0.026 -20.371 -0.059 -20.351 -0.035 6.608 0.204 5.313 0.364 43.584 41.969
43.600 -19.630 -0.043 -19.850 -0.033 -20.068 -0.033 -20.362 -0.064 -20.349 -0.039 6.503 0.197 5.454 0.372 43.579 41.994
44.000 -19.602 -0.048 -19.824 -0.041 -20.051 -0.041 -20.355 -0.068 -20.346 -0.045 6.406 0.198 5.600 0.395 43.576 42.028
44.400 -19.577 -0.052 -19.801 -0.046 -20.036 -0.047 -20.350 -0.068 -20.345 -0.049 6.322 0.204 5.736 0.427 43.573 42.064
44.800 -19.553 -0.054 -19.781 -0.049 -20.024 -0.050 -20.347 -0.066 -20.344 -0.051 6.248 0.213 5.861 0.463 43.572 42.099
